a1444311000,93.79,94.17,93.79,94.17,18893
1,94.16,94.27,93.99,94.27,3434
2,94.06,94.29,94.06,94.29,1100
3,94.38,94.4,94.19,94.27,2086
4,94.28,94.32,94.09,94.21,2060
5,94.49,94.62,94.4,94.4,1199
6,94.49,94.61,94.48,94.61,1100
7,94.37,94.47,94.29,94.47,1342
8,94.34,94.39,94.31,94.31,804
9,94.08,94.34,94.075,94.34,1240
10,94.05,94.09,94.05,94.09,400
11,94.1,94.1,93.99,94.02,4800
12,94.1035,94.1035,94.03,94.03,300
14,94.08,94.08,94.0712,94.0712,220
15,94.12,94.18,94.12,94.145,1000
16,94.15,94.24,94.09,94.11,10983
17,94.19,94.21,94.16,94.19,2500
18,94.2,94.235,94.19,94.19,820
19,94.1,94.2,94.095,94.2,1800
20,94.07,94.1761,94.06,94.1761,1474
21,94.08,94.08,94.0275,94.045,2734
22,94.25,94.25,94.08,94.08,600
23,94.2,94.24,94.2,94.24,200
24,94.27,94.27,94.195,94.195,600
25,94.3,94.37,94.3,94.32,1100
26,94.43,94.47,94.34,94.34,2797
27,94.4,94.46,94.4,94.45,1450
28,94.4,94.46,94.36,94.42,1110
29,94.1601,94.45,94.1601,94.39,6740
30,94.23,94.23,94.23,94.23,100
31,94.34,94.34,94.3,94.3,300
32,94.4,94.51,94.4,94.51,700
33,94.36,94.43,94.36,94.395,800
34,94.31,94.41,94.31,94.33,4023
36,94.27,94.3,94.27,94.3,500
37,94.43,94.43,94.27,94.27,800
38,94.34,94.41,94.34,94.41,600
39,94.38,94.38,94.37,94.37,500
40,94.47,94.495,94.4,94.41,3705
41,94.49,94.49,94.43,94.43,500
42,94.42,94.49,94.42,94.49,5289
43,94.48,94.49,94.44,94.46,1100
44,94.48,94.54,94.48,94.51,1900
45,94.46,94.505,94.46,94.505,2290
46,94.405,94.46,94.38,94.43,1000
47,94.345,94.375,94.34,94.37,700
48,94.29,94.35,94.29,94.32,500
50,94.265,94.27,94.24,94.27,800
51,94.22,94.25,94.19,94.24,800
52,94.09,94.18,94.09,94.18,700
53,94.13,94.14,94.13,94.13,800
54,94.11,94.17,94.11,94.17,300
55,94.2,94.2,94.09,94.126,3300
56,94.3,94.3,94.24,94.25,1000
57,94.26,94.3099,94.25,94.25,1200
58,94.3,94.32,94.285,94.285,1000
59,94.21,94.29,94.21,94.29,3228
60,94.07,94.18,94.07,94.18,1400
61,94.24,94.24,94.07,94.07,2400
62,94.28,94.29,94.21,94.25,2300
63,94.24,94.28,94.21,94.25,5627
64,94.32,94.32,94.29,94.29,600
65,94.38,94.38,94.32,94.33,2000
66,94.42,94.46,94.42,94.43,1300
67,94.29,94.41,94.29,94.41,1400
68,94.27,94.32,94.21,94.3,2900
69,94.33,94.33,94.29,94.29,600
70,94.38,94.4,94.33,94.34,1646
71,94.39,94.42,94.36,94.41,3200
72,94.29,94.42,94.29,94.42,1300
73,94.31,94.31,94.24,94.26,1400
74,94.2,94.27,94.2,94.27,1200
75,94.21,94.21,94.14,94.2,2100
76,94.31,94.31,94.21,94.21,1300
77,94.35,94.35,94.29,94.31,1800
78,94.27,94.37,94.27,94.36,2503
79,94.29,94.29,94.25,94.27,1300
80,94.17,94.28,94.15,94.28,3200
81,94.33,94.34,94.2,94.21,5200
82,94.25,94.3799,94.25,94.35,2310
83,94.44,94.44,94.22,94.255,2200
84,94.45,94.45,94.39,94.41,2039
85,94.48,94.48,94.445,94.445,300
86,94.43,94.52,94.4,94.52,2200
87,94.47,94.47,94.42,94.42,1300
88,94.52,94.54,94.49,94.52,1500
89,94.59,94.59,94.525,94.53,2000
90,94.59,94.63,94.58,94.61,3850
91,94.59,94.65,94.59,94.6,3800
92,94.4975,94.6,94.49,94.59,3900
93,94.49,94.505,94.42,94.505,4200
94,94.43,94.5,94.43,94.46,3610
95,94.47,94.47,94.43,94.45,700
96,94.41,94.47,94.41,94.43,2700
97,94.42,94.43,94.42,94.43,900
98,94.37,94.43,94.37,94.42,2000
99,94.21,94.3506,94.21,94.35,2650
100,94.28,94.3,94.19,94.21,2600
101,94.35,94.36,94.33,94.33,900
102,94.35,94.36,94.34,94.3501,1100
103,94.26,94.34,94.23,94.34,1726
104,94.19,94.25,94.19,94.24,1300
105,94.18,94.21,94.18,94.18,900
106,94.13,94.17,94.13,94.17,500
107,94.06,94.15,94.06,94.13,1200
108,94.03,94.09,94.02,94.09,2100
109,94.11,94.14,94.055,94.07,1600
110,94.18,94.18,94.1,94.12,3806
111,94.28,94.28,94.13,94.21,3700
112,94.3,94.3,94.25,94.25,200
113,94.3699,94.37,94.3699,94.37,200
114,94.4899,94.4899,94.4,94.4,1950
115,94.3,94.43,94.3,94.43,800
116,94.52,94.54,94.36,94.39,1900
117,94.45,94.495,94.45,94.495,600
118,94.535,94.54,94.47,94.47,550
119,94.51,94.53,94.46,94.5,1300
120,94.46,94.52,94.46,94.52,500
121,94.565,94.565,94.5,94.5,800
122,94.59,94.62,94.57,94.62,1507
123,94.66,94.68,94.62,94.62,1300
124,94.67,94.7,94.67,94.7,1000
125,94.61,94.66,94.61,94.66,800
126,94.6,94.62,94.6,94.61,1600
127,94.57,94.61,94.57,94.61,300
128,94.585,94.6,94.58,94.6,1000
129,94.53,94.61,94.53,94.6,1700
130,94.58,94.58,94.55,94.56,1200
131,94.57,94.57,94.52,94.54,1000
132,94.59,94.59,94.53,94.5401,1300
133,94.6,94.61,94.59,94.61,1100
134,94.62,94.62,94.59,94.61,850
135,94.63,94.65,94.59,94.59,500
136,94.64,94.64,94.59,94.63,2000
137,94.62,94.65,94.62,94.65,400
138,94.63,94.63,94.61,94.61,1016
139,94.57,94.62,94.57,94.6,1114
140,94.5,94.5611,94.5,94.56,2303
141,94.565,94.565,94.53,94.53,1800
142,94.56,94.58,94.55,94.55,800
143,94.64,94.64,94.59,94.59,1900
144,94.53,94.615,94.53,94.61,1818
145,94.55,94.59,94.55,94.57,1300
146,94.56,94.56,94.54,94.55,600
147,94.56,94.58,94.56,94.58,400
148,94.61,94.61,94.54,94.54,1400
149,94.595,94.63,94.58,94.59,1914
150,94.56,94.595,94.56,94.595,1816
151,94.51,94.58,94.51,94.56,1700
152,94.64,94.65,94.53,94.53,1850
153,94.655,94.685,94.65,94.66,800
154,94.65,94.67,94.63,94.65,900
155,94.75,94.77,94.7,94.7,600
156,94.7,94.74,94.68,94.72,500
157,94.69,94.75,94.65,94.7,2200
158,94.71,94.74,94.69,94.69,773
159,94.665,94.73,94.64,94.73,1800
160,94.65,94.65,94.65,94.65,100
161,94.63,94.64,94.63,94.64,500
162,94.67,94.68,94.62,94.62,1600
163,94.74,94.76,94.665,94.665,1100
164,94.73,94.73,94.7,94.72,500
165,94.7,94.72,94.68,94.7,1858
166,94.6701,94.697,94.67,94.697,506
167,94.75,94.79,94.74,94.74,1740
168,94.81,94.81,94.74,94.74,700
169,94.79,94.82,94.79,94.795,2600
170,94.8,94.85,94.77,94.77,2888
171,94.85,94.85,94.79,94.802,1800
172,94.85,94.85,94.79,94.83,19386
173,94.85,94.89,94.84,94.85,4400
174,94.92,94.93,94.85,94.85,7720
175,94.92,94.99,94.92,94.93,7209
176,94.96,94.97,94.92,94.945,5123
177,94.96,94.96,94.96,94.96,754
178,94.89,94.965,94.88,94.965,9380
179,94.89,94.925,94.88,94.925,1600
180,94.83,94.89,94.82,94.87,2850
181,94.885,94.885,94.86,94.86,600
182,94.9,94.93,94.87,94.885,700
183,94.94,94.98,94.9,94.9,908
184,94.99,94.99,94.95,94.95,1325
185,94.98,95,94.96,94.98,1619
186,94.95,95.01,94.95,95,3900
187,94.99,94.99,94.95,94.96,600
188,94.87,94.95,94.86,94.95,2142
189,94.94,94.94,94.89,94.89,800
190,94.97,95.02,94.97,95.02,500
191,95.06,95.09,95,95,4900
192,95.07,95.0999,95.06,95.0999,600
193,95.02,95.04,95.01,95.04,2000
194,95,95.022,95,95.022,4295
195,94.98,95.01,94.98,95,6855
196,94.9,95.01,94.88,94.99,8535
197,94.87,94.9,94.84,94.9,4298
198,94.72,94.87,94.72,94.87,1886
199,94.73,94.75,94.7,94.71,4700
200,94.67,94.71,94.66,94.71,3300
201,94.63,94.64,94.59,94.64,500
202,94.69,94.69,94.62,94.62,4000
203,94.61,94.7,94.61,94.69,1500
204,94.67,94.72,94.67,94.67,5625
205,94.7,94.71,94.68,94.69,2378
206,94.72,94.74,94.71,94.71,900
207,94.67,94.69,94.6416,94.69,1600
208,94.73,94.73,94.7,94.72,400
209,94.8,94.8,94.75,94.75,500
210,94.77,94.795,94.75,94.795,2200
211,94.79,94.81,94.79,94.79,1600
212,94.86,94.88,94.81,94.81,1100
213,94.83,94.83,94.83,94.83,100
214,94.82,94.83,94.81,94.83,700
215,94.84,94.84,94.78,94.82,2900
216,94.87,94.87,94.82,94.85,1500
217,94.9,94.99,94.88,94.88,2300
218,94.97,94.98,94.96,94.96,300
219,95,95,95,95,100
220,94.96,95.02,94.96,95.02,1436
221,94.97,94.97,94.92,94.92,1250
222,94.905,94.95,94.89,94.95,1300
223,94.96,94.96,94.92,94.92,800
224,94.99,95.02,94.95,94.97,1700
225,95,95.023,94.99,95.0192,2600
226,95.01,95.01,94.95,94.96,900
227,95.04,95.06,94.98,94.98,1200
228,95.085,95.09,95.03,95.03,2018
229,95.16,95.16,95.08,95.08,2800
230,95.16,95.16,95.12,95.14,1400
231,95.16,95.185,95.12,95.17,5649
232,95.1601,95.2,95.13,95.15,3500
233,95.16,95.18,95.16,95.18,600
234,95.16,95.17,95.16,95.17,400
235,95.2,95.2,95.15,95.15,400
236,95.17,95.19,95.16,95.18,3500
237,95.18,95.2,95.17,95.17,1212
238,95.19,95.24,95.19,95.22,1000
239,95.16,95.18,95.1,95.18,2700
240,95.12,95.13,95.12,95.13,300
241,95.08,95.09,95.0701,95.08,867
242,95.09,95.09,95.08,95.09,1300
243,95.04,95.1,95.04,95.1,1200
244,95.12,95.12,95.06,95.06,1100
245,95.11,95.12,95.11,95.12,1000
246,95.11,95.16,95.11,95.12,1500
247,95.1,95.11,95.1,95.11,400
248,95.15,95.16,95.11,95.11,1557
249,95.16,95.16,95.14,95.16,2410
250,95.17,95.17,95.13,95.14,1264
251,95.19,95.19,95.18,95.18,500
252,95.11,95.195,95.08,95.19,7804
253,95.15,95.15,95.12,95.12,800
254,95.19,95.205,95.19,95.19,1290
255,95.15,95.19,95.14,95.19,2000
256,95.14,95.16,95.14,95.15,900
257,95.18,95.19,95.15,95.15,2300
258,95.19,95.21,95.19,95.2,1371
259,95.21,95.21,95.185,95.185,825
260,95.18,95.22,95.18,95.21,2001
261,95.1,95.17,95.09,95.17,2400
262,95.14,95.14,95.1,95.1,1500
263,95.13,95.15,95.12,95.14,1500
264,95.14,95.17,95.13,95.13,1300
265,95.2,95.2,95.14,95.14,1101
266,95.19,95.21,95.18,95.21,2300
267,95.26,95.26,95.18,95.19,800
268,95.27,95.295,95.27,95.27,1800
269,95.28,95.28,95.26,95.26,400
270,95.26,95.27,95.24,95.27,2100
271,95.28,95.29,95.2,95.22,3100
272,95.47,95.5,95.3,95.3,12786
273,95.37,95.455,95.37,95.445,1200
274,95.5,95.5,95.35,95.35,3350
275,95.4,95.54,95.4,95.53,3081
276,95.32,95.45,95.22,95.45,16436
277,95.185,95.34,95.11,95.33,14603
278,95.32,95.32,95.21,95.22,8900
279,95.36,95.36,95.12,95.27,8070
280,95.3,95.31,95.27,95.31,2500
281,95.4,95.5,95.32,95.32,2981
282,95.45,95.48,95.41,95.46,14400
283,95.41,95.51,95.39,95.46,4518
284,95.451,95.49,95.41,95.41,3040
285,95.52,95.65,95.49,95.49,6200
286,95.442,95.51,95.44,95.5,1425
287,95.49,95.5199,95.43,95.44,3335
288,95.55,95.56,95.48,95.56,1000
289,95.51,95.56,95.51,95.56,900
290,95.52,95.59,95.49,95.54,1750
291,95.47,95.55,95.46,95.55,1000
292,95.56,95.56,95.49,95.49,800
293,95.45,95.5999,95.45,95.59,2227
294,95.55,95.57,95.49,95.51,8400
295,95.58,95.59,95.54,95.5735,2027
296,95.55,95.61,95.55,95.57,1463
297,95.52,95.52,95.48,95.52,600
298,95.5,95.51,95.43,95.49,3679
299,95.53,95.53,95.46,95.46,1350
300,95.53,95.56,95.51,95.53,2530
301,95.58,95.6,95.54,95.54,900
302,95.621,95.66,95.57,95.57,4100
303,95.71,95.72,95.66,95.66,5600
304,95.72,95.77,95.7,95.7,2000
305,95.84,95.84,95.74,95.74,1100
306,95.77,95.83,95.75,95.83,2100
307,95.66,95.77,95.66,95.76,8325
308,95.66,95.67,95.62,95.67,1300
309,95.71,95.71,95.63,95.63,1800
310,95.73,95.73,95.7,95.71,600
311,95.79,95.8,95.76,95.76,1000
312,95.81,95.84,95.78,95.81,2500
313,95.91,95.91,95.83,95.83,5900
314,95.89,95.93,95.88,95.88,2672
315,95.84,95.88,95.82,95.88,2100
316,95.75,95.8,95.7201,95.8,1237
317,95.71,95.7204,95.69,95.7204,1750
318,95.74,95.75,95.68,95.6962,2640
319,95.82,95.82,95.73,95.74,15300
320,95.81,95.86,95.81,95.83,2150
321,95.79,95.79,95.7701,95.7701,1466
322,95.81,95.82,95.79,95.8,1700
323,95.75,95.84,95.75,95.84,1700
324,95.77,95.77,95.73,95.7599,1500
325,95.8,95.8,95.74,95.74,1800
326,95.7003,95.835,95.7003,95.83,2400
327,95.74,95.75,95.72,95.75,900
328,95.78,95.78,95.73,95.73,600
329,95.88,95.88,95.78,95.78,2300
330,95.88,95.93,95.88,95.91,1800
331,95.89,95.91,95.87,95.87,5123
332,95.955,95.97,95.91,95.91,3400
333,95.96,95.99,95.95,95.97,10053
334,95.925,95.97,95.925,95.95,3800
335,95.96,95.98,95.93,95.95,2700
336,95.92,95.96,95.92,95.9485,4925
337,95.92,95.93,95.9,95.93,500
338,95.9,95.92,95.89,95.91,3400
339,95.84,95.92,95.84,95.9,6579
340,95.89,95.9,95.82,95.84,4100
341,95.9,95.9,95.87,95.89,2600
342,95.85,95.92,95.85,95.88,9600
343,95.8899,95.89,95.85,95.86,2951
344,95.9,95.91,95.86,95.87,4819
345,95.86,95.91,95.84,95.89,4500
346,95.88,95.91,95.87,95.89,4300
347,95.865,95.92,95.85,95.9,7297
348,95.87,95.88,95.85,95.86,3600
349,95.82,95.87,95.8,95.87,3100
350,95.77,95.82,95.77,95.82,2100
351,95.75,95.8,95.75,95.77,4511
352,95.67,95.74,95.67,95.74,4949
353,95.68,95.68,95.62,95.65,4000
354,95.62,95.67,95.62,95.67,3535
355,95.61,95.63,95.6,95.6196,930
356,95.68,95.68,95.62,95.62,1600
357,95.69,95.71,95.68,95.68,1500
358,95.62,95.67,95.62,95.67,2300
359,95.61,95.63,95.58,95.62,3100
360,95.63,95.63,95.6,95.61,900
361,95.65,95.69,95.61,95.629,4500
362,95.69,95.69,95.63,95.64,2800
363,95.71,95.72,95.66,95.7,3300
364,95.73,95.74,95.71,95.71,1200
365,95.68,95.72,95.68,95.72,1100
366,95.68,95.7,95.62,95.65,6900
367,95.68,95.71,95.67,95.71,2662
368,95.65,95.69,95.65,95.675,4115
369,95.59,95.64,95.59,95.63,3200
370,95.56,95.6,95.56,95.6,1800
371,95.61,95.62,95.565,95.57,4193
372,95.61,95.655,95.6,95.63,3757
373,95.61,95.62,95.58,95.6,4023
374,95.58,95.612,95.57,95.612,2642
375,95.68,95.7,95.59,95.59,4504
376,95.69,95.7,95.67,95.68,2532
377,95.75,95.76,95.7,95.7,6651
378,95.72,95.76,95.72,95.73,4617
379,95.74,95.78,95.7,95.72,5900
380,95.72,95.74,95.72,95.74,3000
381,95.705,95.75,95.7,95.72,3858
382,95.75,95.75,95.695,95.7,6120
383,95.78,95.78,95.7,95.75,6000
384,95.76,95.79,95.75,95.79,4166
385,95.78,95.79,95.76,95.76,6337
386,95.72,95.79,95.7,95.78,8193
387,95.7899,95.81,95.71,95.71,6827
388,95.76,95.79,95.72,95.78,11100
389,95.77,95.77,95.74,95.74,14449
390,95.75,95.77,95.72,95.77,11221
a1444397400,95.63,95.7,95.63,95.7,14368
1,95.68,95.9,95.65,95.9,503
3,95.71,95.91,95.71,95.9,1300
4,96,96,95.96,95.99,400
5,95.95,96,95.69,95.845,21500
6,95.97,95.98,95.845,95.845,1066
7,96.125,96.125,95.88,95.88,3250
8,96.23,96.23,96.15,96.18,700
9,96.07,96.14,96.07,96.14,1000
10,96.29,96.29,96.07,96.07,1337
11,96.27,96.27,96.19,96.22,600
12,96.24,96.24,96.18,96.189,518
13,96.29,96.29,96.13,96.26,4000
14,96.26,96.33,96.25,96.25,2400
15,96.18,96.28,96.18,96.28,900
16,96.22,96.22,96.22,96.22,300
18,96.15,96.19,96.11,96.18,3463
19,96.12,96.21,96.12,96.16,14190
20,96.155,96.155,96.12,96.155,810
21,96.2972,96.2972,96.19,96.19,2000
22,96.27,96.29,96.24,96.24,1600
24,96.21,96.27,96.21,96.27,3128
25,96.2,96.25,96.2,96.21,600
26,95.99,96.16,95.955,96.16,6600
27,96.0908,96.0908,95.88,95.93,4220
28,96.01,96.11,95.96,96.11,2241
29,96.11,96.11,96.07,96.11,795
30,95.9,96.06,95.9,96.04,1488
31,95.825,95.9,95.76,95.9,1800
32,95.74,95.91,95.74,95.8704,1382
33,95.44,95.74,95.43,95.74,4785
34,95.59,95.59,95.49,95.51,6678
35,95.54,95.58,95.54,95.55,1600
36,95.55,95.58,95.5,95.54,800
37,95.48,95.52,95.48,95.52,600
38,95.3901,95.5,95.39,95.49,3200
39,95.3125,95.4396,95.24,95.4396,6500
40,95.16,95.31,95.16,95.29,1010
41,95.01,95.15,95.01,95.15,2300
42,95.14,95.15,95.045,95.06,2600
43,95.37,95.37,95.12,95.12,3161
44,95.44,95.44,95.4,95.4,600
45,95.37,95.44,95.37,95.44,2200
46,95.33,95.38,95.33,95.3301,2905
47,95.46,95.46,95.33,95.33,1629
48,95.48,95.49,95.39,95.48,7100
49,95.41,95.47,95.4,95.47,1523
50,95.4,95.4,95.4,95.4,200
51,95.59,95.59,95.4,95.4,1900
52,95.55,95.6,95.54,95.56,6984
53,95.58,95.59,95.58,95.59,2300
54,95.64,95.64,95.58,95.59,900
55,95.55,95.63,95.55,95.61,1400
56,95.48,95.57,95.48,95.55,2126
57,95.55,95.55,95.51,95.51,1500
58,95.67,95.67,95.58,95.58,600
59,95.7007,95.74,95.68,95.7,2268
60,95.52,95.77,95.52,95.72,4218
61,95.67,95.67,95.48,95.54,1900
62,95.66,95.66,95.66,95.66,100
63,95.72,95.72,95.66,95.69,1400
64,95.78,95.78,95.74,95.74,490
65,95.75,95.8,95.717,95.717,1400
66,95.8,95.83,95.8,95.82,1500
67,95.74,95.81,95.73,95.81,2720
68,95.78,95.79,95.74,95.78,2700
69,95.78,95.78,95.77,95.78,1500
70,95.73,95.76,95.68,95.76,5643
71,95.75,95.81,95.73,95.73,3600
72,95.68,95.76,95.68,95.74,1100
73,95.63,95.71,95.63,95.68,1900
74,95.66,95.74,95.66,95.66,3600
75,95.77,95.77,95.68,95.68,1255
76,95.81,95.88,95.78,95.8,3200
77,95.75,95.8,95.75,95.8,3200
78,95.73,95.75,95.72,95.73,700
79,95.69,95.73,95.69,95.72,900
80,95.58,95.66,95.58,95.63,2900
81,95.59,95.6,95.56,95.56,2800
82,95.54,95.57,95.54,95.56,800
83,95.59,95.64,95.5425,95.56,2400
84,95.65,95.65,95.61,95.61,400
85,95.68,95.72,95.68,95.7,900
86,95.75,95.75,95.675,95.675,700
87,95.82,95.824,95.77,95.82,2267
88,95.85,95.86,95.8,95.83,2075
89,95.8,95.88,95.8,95.83,4055
90,95.81,95.8299,95.79,95.81,2800
91,95.84,95.86,95.79,95.79,7582
92,95.8885,95.9,95.86,95.86,800
93,95.91,95.98,95.91,95.91,2525
94,95.84,95.9,95.84,95.9,3300
95,95.85,95.86,95.84,95.855,1473
96,95.92,95.92,95.87,95.87,2300
97,95.88,95.935,95.88,95.93,1400
98,95.86,95.9099,95.76,95.9099,38447
99,95.8875,95.92,95.84,95.87,2100
100,96.02,96.02,95.9,95.9,2212
101,95.99,96.01,95.97,95.98,3383
102,95.94,96,95.92,96,10702
103,95.92,95.92,95.84,95.9,4800
104,95.92,95.92,95.91,95.92,900
105,95.96,95.97,95.9,95.9,2700
106,96.05,96.05,95.96,95.96,2396
107,96.12,96.12,96.08,96.08,2697
108,96.105,96.13,96.1,96.13,3917
109,96.07,96.11,96.07,96.1,6250
110,95.99,96.08,95.99,96.06,6800
111,95.98,96.06,95.98,96.005,8738
112,96.03,96.03,95.95,95.95,2200
113,96.03,96.09,96.01,96.05,6160
114,96.07,96.07,96.005,96.01,7765
115,96.1,96.19,96.1,96.1,5042
116,96.23,96.23,96.11,96.13,7502
117,96.3565,96.39,96.2499,96.2499,6479
118,96.4,96.4,96.3255,96.3255,1100
119,96.41,96.41,96.4099,96.4099,1300
120,96.45,96.457,96.4,96.41,2858
121,96.37,96.4499,96.37,96.43,4986
122,96.33,96.37,96.33,96.36,1300
123,96.24,96.35,96.24,96.35,1200
124,96.19,96.23,96.19,96.23,1000
125,96.2,96.2,96.13,96.13,1345
126,96.225,96.27,96.22,96.22,1710
127,96.11,96.21,96.11,96.21,2663
128,96.06,96.09,96.06,96.09,600
129,96.09,96.13,96.02,96.02,16756
130,96.05,96.09,96.05,96.09,1900
131,96.11,96.11,96.01,96.08,4126
132,96.1399,96.15,96.09,96.15,1500
133,96.01,96.08,96.01,96.08,1100
134,96,96.01,95.87,96.01,10200
135,96,96.03,96,96.01,1400
136,96.064,96.064,96.01,96.01,2302
137,96.1,96.1,96.1,96.1,500
138,96.09,96.15,96.08,96.14,2500
139,96.13,96.13,96.13,96.13,500
140,96.11,96.1187,96.11,96.1187,427
141,96.18,96.18,96.12,96.12,1000
142,96.16,96.2,96.16,96.2,1600
143,96.0701,96.15,96.0701,96.15,1300
144,95.95,96.07,95.95,96.07,1760
145,95.92,95.922,95.86,95.922,5500
146,96.01,96.01,95.9,95.9,6700
147,96.06,96.06,96.04,96.04,800
148,96.0905,96.14,96.0905,96.12,500
149,96.08,96.14,96.08,96.14,3000
150,96.025,96.06,95.98,96.06,600
151,95.99,96.02,95.99,96.02,900
152,96.085,96.0857,96.01,96.01,1700
153,96.1,96.12,96.1,96.12,1060
154,96.03,96.13,96.03,96.13,1600
155,96.01,96.01,95.96,96,1876
156,96.03,96.08,96.03,96.04,1560
157,95.95,96.02,95.95,96,900
158,95.9,95.91,95.861,95.9,1370
160,95.89,95.9,95.88,95.89,900
161,95.92,95.92,95.88,95.88,400
162,95.94,95.95,95.92,95.95,1700
163,95.87,95.92,95.87,95.92,1000
164,95.81,95.83,95.81,95.83,500
165,95.84,95.84,95.8,95.8,2000
166,95.8275,95.84,95.8,95.81,1800
167,95.85,95.85,95.837,95.837,291
168,95.8401,95.91,95.84,95.8899,1656
169,95.83,95.84,95.81,95.84,800
170,95.82,95.83,95.8,95.83,1500
171,95.85,95.85,95.8,95.83,2100
172,95.8301,95.86,95.83,95.86,500
173,95.87,95.88,95.85,95.87,800
174,95.83,95.87,95.83,95.87,2000
175,95.82,95.82,95.78,95.81,2115
176,95.84,95.84,95.84,95.84,300
177,95.88,95.88,95.88,95.88,300
179,95.93,95.93,95.89,95.89,1200
180,95.96,95.98,95.93,95.93,1200
181,95.87,95.97,95.87,95.97,4400
182,95.86,95.91,95.84,95.86,4000
183,95.87,95.93,95.85,95.9,2000
184,95.81,95.85,95.81,95.83,1200
186,95.84,95.89,95.81,95.82,3258
187,95.86,95.87,95.85,95.85,2100
188,95.91,95.91,95.87,95.87,1344
189,95.92,95.95,95.9,95.95,2000
190,96.01,96.01,95.9,95.91,3530
191,95.94,95.97,95.94,95.97,1200
192,95.92,95.94,95.92,95.94,800
193,95.88,95.89,95.88,95.89,800
194,95.84,95.89,95.84,95.89,3000
195,95.88,95.92,95.87,95.87,2026
196,95.85,95.86,95.85,95.86,800
197,95.83,95.83,95.81,95.83,1700
198,95.83,95.85,95.83,95.83,900
199,95.88,95.88,95.855,95.86,1100
200,95.9,95.9,95.9,95.9,100
201,95.83,95.93,95.82,95.93,3000
202,95.84,95.84,95.84,95.84,100
203,95.87,95.89,95.87,95.87,1700
204,95.85,95.9,95.85,95.9,700
205,95.7901,95.86,95.7901,95.86,1688
207,95.88,95.88,95.84,95.84,1300
208,95.81,95.85,95.81,95.84,1603
209,95.77,95.8,95.77,95.79,1877
210,95.735,95.78,95.735,95.775,4400
211,95.72,95.77,95.72,95.73,4300
212,95.75,95.76,95.73,95.73,700
213,95.755,95.77,95.73,95.77,2600
214,95.78,95.78,95.71,95.74,5300
215,95.74,95.78,95.74,95.78,1000
216,95.75,95.75,95.71,95.72,1900
217,95.77,95.79,95.735,95.735,1300
218,95.785,95.785,95.75,95.77,1900
219,95.725,95.747,95.71,95.747,620
220,95.62,95.75,95.62,95.725,5725
221,95.515,95.62,95.51,95.62,4250
222,95.56,95.59,95.55,95.55,957
223,95.54,95.57,95.44,95.57,10088
224,95.51,95.52,95.48,95.51,9840
225,95.5,95.52,95.49,95.49,9470
226,95.58,95.6,95.5,95.52,5360
227,95.67,95.675,95.59,95.59,2500
228,95.7225,95.74,95.71,95.71,750
229,95.69,95.71,95.67,95.7,3500
230,95.76,95.76,95.68,95.68,2515
231,95.77,95.77,95.77,95.77,100
232,95.78,95.8,95.7501,95.76,1409
233,95.8,95.81,95.8,95.81,600
234,95.79,95.81,95.79,95.81,1000
235,95.78,95.79,95.77,95.79,1219
236,95.76,95.78,95.74,95.77,2740
237,95.73,95.76,95.73,95.74,2749
238,95.71,95.71,95.68,95.7,1900
239,95.7495,95.76,95.73,95.73,500
240,95.6794,95.73,95.6794,95.73,1560
241,95.67,95.68,95.66,95.67,1900
242,95.67,95.68,95.67,95.68,1500
243,95.66,95.7,95.66,95.67,1361
244,95.6099,95.66,95.6,95.66,1900
245,95.65,95.66,95.61,95.62,1500
246,95.62,95.64,95.62,95.64,500
247,95.69,95.69,95.61,95.61,7900
248,95.7,95.71,95.7,95.71,900
249,95.69,95.72,95.68,95.7198,2618
250,95.71,95.71,95.6964,95.6964,214
251,95.65,95.69,95.65,95.69,2900
252,95.67,95.67,95.59,95.59,3000
253,95.68,95.68,95.65,95.66,1200
254,95.77,95.77,95.71,95.71,1200
255,95.8,95.8,95.7672,95.77,1432
256,95.76,95.81,95.75,95.81,2300
257,95.79,95.82,95.76,95.76,2000
258,95.69,95.79,95.69,95.785,7300
259,95.725,95.73,95.7,95.7,1180
260,95.71,95.72,95.7,95.71,1951
261,95.8,95.8,95.71,95.74,2883
262,95.8001,95.8001,95.77,95.77,1476
263,95.77,95.8,95.77,95.8,1800
264,95.75,95.78,95.75,95.75,1700
265,95.76,95.76,95.75,95.76,700
266,95.72,95.75,95.72,95.75,1100
267,95.78,95.78,95.72,95.72,1535
268,95.85,95.85,95.81,95.81,3400
269,95.79,95.84,95.79,95.84,2500
270,95.74,95.79,95.74,95.79,3300
271,95.78,95.8,95.75,95.75,1768
272,95.81,95.81,95.79,95.79,800
273,95.74,95.81,95.74,95.81,1500
274,95.72,95.73,95.72,95.72,1100
275,95.67,95.74,95.67,95.74,2290
276,95.688,95.69,95.67,95.67,2100
277,95.7,95.7,95.68,95.68,800
278,95.69,95.7199,95.68,95.7,1500
279,95.71,95.71,95.67,95.67,1600
280,95.7,95.7,95.69,95.69,700
281,95.74,95.74,95.7,95.7,1800
282,95.79,95.79,95.7101,95.7101,760
283,95.79,95.83,95.79,95.808,2100
284,95.7779,95.8,95.7779,95.79,913
285,95.78,95.81,95.78,95.8,2290
286,95.75,95.8,95.75,95.8,3000
287,95.71,95.77,95.71,95.76,2219
288,95.75,95.76,95.74,95.74,1600
289,95.71,95.74,95.71,95.73,1010
290,95.76,95.77,95.73,95.73,800
291,95.73,95.78,95.71,95.77,13200
292,95.72,95.75,95.72,95.74,1740
293,95.7354,95.74,95.71,95.73,2300
294,95.71,95.71,95.71,95.71,600
295,95.7,95.72,95.7,95.7,2300
296,95.68,95.69,95.66,95.69,2870
297,95.74,95.74,95.71,95.71,900
298,95.78,95.8,95.77,95.77,2600
299,95.82,95.82,95.82,95.82,100
300,95.88,95.88,95.83,95.83,1800
301,95.8,95.87,95.7724,95.87,5033
302,95.79,95.79,95.77,95.77,1599
303,95.75,95.77,95.75,95.77,1800
304,95.76,95.76,95.74,95.74,2400
305,95.73,95.79,95.73,95.78,4600
306,95.7,95.72,95.7,95.72,600
307,95.72,95.74,95.71,95.71,2697
308,95.76,95.77,95.72,95.73,2363
309,95.78,95.79,95.76,95.7672,2364
310,95.79,95.79,95.78,95.78,500
311,95.75,95.79,95.75,95.78,1603
312,95.79,95.79,95.77,95.78,1800
313,95.77,95.78,95.77,95.78,1000
314,95.72,95.75,95.68,95.75,6038
315,95.71,95.73,95.7,95.71,2200
316,95.74,95.75,95.71,95.71,1300
317,95.72,95.74,95.7,95.74,2000
318,95.73,95.77,95.73,95.74,2029
319,95.76,95.76,95.73,95.76,800
320,95.8,95.8,95.76,95.76,2057
321,95.77,95.81,95.77,95.81,2200
322,95.73,95.77,95.73,95.77,3333
323,95.82,95.82,95.75,95.75,2000
324,95.81,95.82,95.81,95.82,2800
325,95.76,95.81,95.76,95.8,1800
326,95.81,95.81,95.76,95.77,3000
327,95.78,95.795,95.77,95.795,2600
328,95.77,95.8,95.77,95.79,1200
329,95.81,95.82,95.78,95.78,3000
330,95.82,95.84,95.8,95.82,2562
331,95.78,95.82,95.78,95.81,3652
332,95.73,95.76,95.72,95.76,5622
333,95.68,95.72,95.68,95.72,2414
334,95.72,95.72,95.68,95.68,3330
335,95.68,95.71,95.68,95.71,3300
336,95.64,95.6801,95.64,95.6801,977
337,95.68,95.68,95.64,95.65,5575
338,95.67,95.69,95.67,95.69,1600
339,95.7,95.7,95.66,95.66,2902
340,95.69,95.695,95.69,95.695,3035
341,95.64,95.69,95.64,95.69,3000
342,95.645,95.645,95.63,95.64,2200
343,95.58,95.64,95.57,95.64,7290
344,95.58,95.58,95.57,95.5799,2476
345,95.62,95.62,95.59,95.59,3200
346,95.59,95.63,95.59,95.63,8458
347,95.57,95.61,95.57,95.6,2372
348,95.56,95.61,95.56,95.57,4400
349,95.61,95.61,95.59,95.59,800
350,95.59,95.63,95.59,95.62,3700
351,95.55,95.58,95.53,95.58,14925
352,95.59,95.59,95.58,95.59,1950
353,95.63,95.63,95.61,95.61,400
354,95.69,95.69,95.63,95.63,7520
355,95.7,95.72,95.7,95.71,1300
356,95.77,95.77,95.71,95.71,1500
357,95.78,95.78,95.71,95.75,3200
358,95.72,95.76,95.72,95.75,1200
359,95.76,95.78,95.74,95.74,2322
360,95.77,95.78,95.751,95.751,3050
361,95.81,95.82,95.78,95.78,4000
362,95.86,95.91,95.85,95.85,4450
363,95.81,95.88,95.81,95.87,4400
364,95.85,95.86,95.82,95.82,1500
365,95.82,95.88,95.79,95.84,18066
366,95.82,95.84,95.82,95.83,8268
367,95.89,95.89,95.83,95.83,2200
368,95.9,95.92,95.88,95.91,5756
369,95.91,95.92,95.895,95.91,4009
370,95.82,95.89,95.8,95.89,11414
371,95.79,95.84,95.79,95.82,6845
372,95.85,95.87,95.8,95.8,11306
373,95.88,95.88,95.84,95.85,11273
374,95.96,95.96,95.88,95.88,6450
375,96,96,95.93,95.95,9538
376,95.93,96.01,95.92,96.01,14994
377,95.98,95.99,95.93,95.93,9911
378,96.02,96.04,95.98,95.99,12100
379,96.03,96.06,96.02,96.03,20468
380,96.03,96.04,96,96.02,13196
381,96.03,96.03,96,96.02,18884
382,96.01,96.03,96,96.03,14395
383,96.01,96.01,96,96.005,5746
384,95.98,96.01,95.97,96.01,19097
385,95.94,95.98,95.92,95.98,19453
386,95.94,95.955,95.94,95.94,16043
387,95.94,95.98,95.93,95.945,20274
388,96.01,96.02,95.94,95.95,31997
389,96.07,96.07,96.01,96.02,27762
390,96,96.09,95.98,96.07,39827
a1444656660,96.52,96.92,96.01,96.66,35506
1,96.67,96.68,96.12,96.34,6620
2,96.9,96.9,96.53,96.62,10452
3,96.725,96.88,96.42,96.88,5930
4,96.69,96.74,96.54,96.68,1900
5,96.43,96.77,95.53,96.75,32068
6,96.66,96.79,96.35,96.49,8146
7,96.6,96.73,96.58,96.73,7600
8,96.77,96.77,96.6,96.62,4003
9,96.73,96.82,96.69,96.77,3701
10,96.49,96.84,96.45,96.79,5160
11,96.55,96.67,96.4099,96.48,8362
12,96.65,96.79,96.44,96.56,3100
13,96.88,96.88,96.59,96.65,5300
14,96.96,96.96,96.77,96.84,3410
15,97.11,97.32,96.94,96.96,18591
16,97.265,97.31,96.53,97.17,62971
17,97.2,97.3,97.16,97.265,14020
18,97.06,97.17,97.06,97.17,14056
19,97.18,97.235,97,97.04,12766
20,97.105,97.34,97.07,97.17,7986
21,97.18,97.19,97.04,97.105,3000
22,97.04,97.21,96.905,97.18,16623
23,96.96,97.08,96.875,97.06,13030
24,97.26,97.29,97.01,97.01,3200
25,97.34,97.34,97.085,97.25,22249
26,97.175,97.52,97.175,97.35,12600
27,97.21,97.32,97.09,97.175,19539
28,97.25,97.27,97.08,97.27,6650
29,97.085,97.27,97.085,97.27,3767
30,96.86,97.08,96.86,97.08,12398
31,96.83,96.83,96.76,96.78,1400
32,96.94,96.94,96.58,96.78,15100
33,96.95,96.98,96.93,96.94,800
34,97.05,97.05,96.98,96.98,1800
35,96.97,97.05,96.9,97.025,4200
36,96.93,97,96.9,96.9324,2200
37,96.92,96.945,96.82,96.93,4213
38,96.92,96.9825,96.89,96.925,1400
39,97,97.02,96.9,96.9,5778
40,97.04,97.04,96.9522,96.97,2282
41,97.2,97.2,97.04,97.04,2000
42,97.22,97.28,97.21,97.21,1900
43,97.155,97.18,97.09,97.18,1100
44,97.09,97.09,96.92,97.06,13709
45,97.225,97.26,97.03,97.12,26900
46,96.965,97.25,96.95,97.25,14849
47,97.02,97.1,96.98,96.98,4100
48,97.115,97.14,97.01,97.01,3450
49,97.04,97.09,96.99,97.09,2600
50,96.81,96.93,96.75,96.93,5180
51,96.8,96.93,96.8,96.85,3100
52,96.84,96.89,96.8,96.86,4300
53,96.7,96.81,96.68,96.8,4200
54,96.76,96.76,96.62,96.6759,3410
55,96.6569,96.69,96.6569,96.68,1000
56,96.61,96.71,96.59,96.71,1122
57,96.81,96.81,96.6,96.65,3500
58,96.92,96.92,96.75,96.77,2700
59,96.86,96.88,96.85,96.85,1225
60,96.82,96.88,96.8,96.88,2984
61,96.85,96.85,96.82,96.82,1240
62,96.77,96.8399,96.75,96.8399,2225
63,96.82,96.88,96.765,96.765,2600
64,96.9,96.92,96.8,96.8,2600
65,96.87,96.87,96.85,96.87,600
66,96.94,96.98,96.86,96.89,4000
67,96.93,96.98,96.93,96.98,2600
68,96.89,96.99,96.87,96.96,3200
69,96.94,96.94,96.9,96.91,1291
70,96.9,96.96,96.88,96.95,5738
71,96.98,96.98,96.89,96.89,700
72,96.89,96.96,96.89,96.96,3073
73,96.87,96.92,96.85,96.87,9100
74,96.89,96.89,96.84,96.89,2513
75,96.9,96.91,96.9,96.91,400
76,96.93,96.99,96.91,96.91,3764
77,96.8,96.91,96.8,96.91,1000
78,96.83,96.83,96.78,96.78,800
79,96.93,96.93,96.79,96.79,800
80,97.08,97.09,96.98,96.98,1000
81,97.04,97.05,97.04,97.05,505
82,97,97.07,96.99,97.04,2500
83,96.93,96.997,96.92,96.997,2070
84,96.825,96.94,96.82,96.94,1525
85,96.88,96.9,96.86,96.86,2900
86,96.94,96.94,96.92,96.92,300
87,97.02,97.02,96.94,96.97,800
88,96.99,97.0325,96.94,97.0155,2915
89,96.95,97,96.88,96.955,7532
90,97.09,97.09,96.96,96.96,2234
91,97.19,97.19,97.1,97.11,2107
92,97.22,97.28,97.22,97.22,5067
93,97.24,97.24,97.18,97.23,1800
94,97.32,97.32,97.22,97.2221,2800
95,97.3375,97.345,97.29,97.31,3700
96,97.45,97.45,97.345,97.345,2522
97,97.4055,97.42,97.38,97.42,1592
98,97.285,97.45,97.285,97.42,3000
99,97.34,97.34,97.29,97.29,1400
100,97.3004,97.355,97.28,97.355,1500
101,97.32,97.34,97.27,97.295,8063
102,97.33,97.34,97.31,97.31,4835
103,97.37,97.38,97.31,97.31,3800
104,97.46,97.46,97.3601,97.3601,5050
105,97.41,97.49,97.4,97.47,4300
106,97.42,97.45,97.41,97.42,4200
108,97.4,97.415,97.36,97.36,3216
109,97.42,97.52,97.42,97.44,4313
110,97.47,97.47,97.45,97.45,1200
111,97.41,97.47,97.38,97.47,4100
112,97.39,97.41,97.39,97.39,2878
113,97.4,97.42,97.38,97.41,5331
114,97.41,97.45,97.41,97.42,1751
115,97.44,97.44,97.3875,97.4,900
116,97.41,97.46,97.4,97.46,3200
117,97.405,97.44,97.38,97.38,2665
118,97.45,97.45,97.39,97.39,1200
119,97.47,97.47,97.45,97.45,1400
120,97.61,97.61,97.47,97.48,3149
121,97.59,97.65,97.59,97.6,2600
122,97.551,97.57,97.49,97.57,2471
123,97.52,97.54,97.5,97.54,1205
124,97.54,97.58,97.53,97.55,1300
125,97.48,97.4901,97.48,97.4901,510
126,97.44,97.49,97.44,97.48,1700
127,97.34,97.42,97.33,97.42,5051
128,97.36,97.36,97.34,97.34,2099
129,97.4,97.42,97.36,97.36,3328
130,97.33,97.41,97.31,97.4,14607
131,97.46,97.46,97.34,97.34,1500
132,97.49,97.56,97.47,97.47,5100
133,97.69,97.69,97.53,97.53,2300
134,97.58,97.71,97.58,97.7,6200
135,97.535,97.57,97.53,97.57,1300
136,97.4,97.49,97.39,97.49,1600
137,97.51,97.525,97.39,97.4,4347
138,97.44,97.4975,97.44,97.4975,2800
139,97.475,97.48,97.42,97.44,3828
140,97.49,97.5,97.46,97.49,4349
141,97.45,97.485,97.42,97.485,2300
142,97.5,97.5,97.44,97.44,900
143,97.4,97.5,97.381,97.5,2600
144,97.37,97.4,97.32,97.38,6984
145,97.38,97.41,97.38,97.39,1000
146,97.29,97.35,97.28,97.35,1900
147,97.3,97.3,97.245,97.25,3600
148,97.3,97.3,97.28,97.285,1574
149,97.26,97.315,97.26,97.31,1703
150,97.25,97.35,97.25,97.2745,2211
151,97.14,97.25,97.14,97.25,1500
152,97.11,97.16,97.11,97.12,2318
153,97.15,97.15,97.1,97.12,1100
154,97.1,97.13,97.1,97.13,1300
155,97.04,97.08,97.04,97.08,400
156,97.08,97.08,97.05,97.05,1400
157,97.02,97.085,97.02,97.085,1300
158,97.06,97.0669,97.01,97.01,1500
159,97.12,97.12,97.02,97.03,9744
160,97.17,97.18,97.13,97.14,3910
161,97.22,97.22,97.12,97.13,4893
162,97.16,97.23,97.15,97.23,1800
163,97.09,97.135,97.09,97.12,1800
164,97.015,97.05,97.01,97.05,5100
165,97.06,97.06,97.01,97.01,4500
166,97.18,97.18,97.04,97.04,3300
167,97.2,97.21,97.14,97.15,6410
168,97.18,97.18,97.14,97.18,4900
169,97.23,97.23,97.17,97.21,3100
170,97.21,97.24,97.15,97.24,2200
171,97.23,97.23,97.2,97.2,900
172,97.26,97.27,97.23,97.24,1100
173,97.23,97.26,97.22,97.26,1900
174,97.33,97.33,97.1901,97.2,2561
175,97.289,97.31,97.28,97.3,500
176,97.26,97.28,97.24,97.26,1500
177,97.3,97.31,97.29,97.29,700
178,97.22,97.33,97.22,97.33,1600
179,97.22,97.24,97.2,97.22,1400
180,97.155,97.25,97.1,97.25,3023
181,97.09,97.13,97.09,97.13,1450
182,97.1,97.11,97.08,97.08,5506
183,97.11,97.11,97.06,97.09,3300
184,97.12,97.12,97.11,97.11,594
185,97.09,97.11,97.08,97.1,1800
186,97.1,97.11,97.1,97.11,805
187,97.05,97.06,97.04,97.06,800
188,97.06,97.07,97.06,97.07,600
189,97.11,97.11,97.08,97.08,400
190,97.07,97.1,97.07,97.1,1450
191,97.04,97.04,97.04,97.04,100
192,96.99,97.04,96.99,97.03,1700
193,96.95,96.99,96.95,96.99,700
194,97.02,97.02,96.96,96.98,1400
195,97.05,97.05,97.02,97.05,500
196,97.04,97.1,97.02,97.07,3494
197,97.07,97.07,97.03,97.03,2721
198,97.09,97.095,97.06,97.06,1310
199,97.04,97.095,97.04,97.095,6573
200,97.105,97.13,97.06,97.06,7653
201,97.07,97.13,97.03,97.11,14416
202,97.125,97.15,97.07,97.07,3348
203,97.173,97.2146,97.14,97.14,7571
204,97.2598,97.2727,97.19,97.19,7950
205,97.24,97.26,97.22,97.2301,4400
206,97.31,97.31,97.231,97.231,900
207,97.34,97.34,97.3101,97.3101,1200
208,97.35,97.35,97.32,97.33,2820
209,97.4,97.45,97.37,97.37,2850
210,97.35,97.41,97.349,97.4,1500
211,97.37,97.39,97.34,97.36,11015
212,97.3125,97.36,97.3,97.36,2050
213,97.264,97.28,97.264,97.28,500
214,97.16,97.29,97.15,97.27,15600
215,97.125,97.17,97.125,97.16,3640
216,97.05,97.125,97.04,97.125,2600
217,96.96,97.015,96.96,97.015,1000
218,96.99,96.99,96.93,96.96,2700
219,97,97,97,97,200
220,97.11,97.11,97.04,97.04,2700
221,97.2,97.23,97.1,97.1,2405
222,97.15,97.289,97.15,97.21,3508
223,97.1,97.17,97.1,97.15,1100
224,97.13,97.13,97.09,97.11,900
225,97.2,97.2,97.115,97.1364,1630
226,97.21,97.22,97.19,97.21,500
227,97.24,97.24,97.22,97.23,1000
228,97.14,97.24,97.14,97.24,2000
229,97.2,97.2,97.13,97.13,900
230,97.22,97.22,97.21,97.21,300
231,97.24,97.25,97.22,97.22,1825
232,97.23,97.24,97.22,97.22,904
233,97.24,97.25,97.24,97.24,1600
234,97.26,97.27,97.26,97.26,1632
235,97.23,97.23,97.23,97.23,1300
236,97.17,97.23,97.17,97.23,1300
237,97.11,97.14,97.11,97.14,1300
238,97.075,97.08,97.07,97.08,1025
239,97.14,97.14,97.08,97.08,2600
240,97.2,97.21,97.14,97.14,1200
241,97.18,97.2,97.17,97.2,1500
242,97.16,97.2,97.16,97.19,1500
244,97.17,97.17,97.15,97.15,1000
245,97.24,97.24,97.18,97.18,1500
246,97.3,97.3,97.26,97.26,1100
247,97.24,97.3,97.24,97.3,5444
248,97.27,97.29,97.25,97.25,1800
249,97.31,97.31,97.29,97.29,1100
250,97.29,97.34,97.29,97.34,1302
251,97.24,97.27,97.23,97.27,2500
252,97.2,97.23,97.2,97.23,500
253,97.165,97.21,97.165,97.2,2000
254,97.16,97.21,97.1375,97.165,8336
255,97.13,97.16,97.12,97.15,1920
256,97.13,97.15,97.13,97.13,2600
257,97.15,97.15,97.12,97.12,2200
258,97.19,97.24,97.16,97.16,8500
259,97.25,97.25,97.2,97.22,1900
260,97.19,97.2699,97.19,97.2699,1100
261,97.2,97.2,97.17,97.19,705
262,97.16,97.24,97.16,97.24,1100
263,97.095,97.12,97.095,97.1,300
264,97.17,97.17,97.09,97.09,1300
265,97.18,97.21,97.18,97.18,1900
266,97.13,97.19,97.13,97.18,1000
267,97.135,97.17,97.13,97.17,500
268,97.19,97.19,97.13,97.15,1750
269,97.18,97.2,97.18,97.2,1600
270,97.15,97.15,97.13,97.15,800
271,97.158,97.18,97.15,97.17,2110
272,97.11,97.15,97.11,97.14,1500
273,97.15,97.15,97.09,97.11,1800
274,97.13,97.158,97.13,97.158,1100
275,97.125,97.13,97.12,97.13,4300
276,97.17,97.17,97.12,97.125,4000
277,97.23,97.24,97.19,97.19,1450
278,97.23,97.23,97.18,97.22,2088
279,97.23,97.23,97.22,97.22,2700
280,97.21,97.2101,97.21,97.2101,700
281,97.15,97.22,97.15,97.22,1400
282,97.18,97.18,97.14,97.14,1500
283,97.16,97.21,97.15,97.15,1100
284,97.13,97.1702,97.12,97.15,1200
285,97.13,97.17,97.12,97.12,2368
286,97.12,97.14,97.12,97.12,1700
287,97.158,97.16,97.14,97.14,900
288,97.24,97.24,97.17,97.17,2350
289,97.2,97.24,97.2,97.23,2500
290,97.17,97.217,97.17,97.19,2100
291,97.21,97.21,97.16,97.17,1200
292,97.14,97.21,97.14,97.21,900
293,97.19,97.19,97.15,97.15,1200
294,97.15,97.18,97.15,97.17,1400
295,97.13,97.16,97.12,97.16,1857
296,97.21,97.21,97.14,97.14,1500
297,97.15,97.19,97.15,97.19,1700
298,97.13,97.14,97.105,97.14,5528
299,97.13,97.17,97.13,97.13,2945
300,97.12,97.13,97.12,97.13,1104
301,97.13,97.13,97.13,97.13,100
302,97.17,97.17,97.09,97.1301,3300
303,97.23,97.23,97.16,97.16,2300
304,97.22,97.22,97.22,97.22,1100
305,97.14,97.17,97.14,97.17,400
306,97.15,97.17,97.13,97.13,2427
307,97.21,97.21,97.18,97.18,900
308,97.18,97.19,97.16,97.19,1800
309,97.13,97.17,97.13,97.16,3729
310,97.12,97.139,97.12,97.13,1600
311,97.16,97.16,97.12,97.12,5250
312,97.125,97.17,97.1201,97.17,3730
313,97.15,97.15,97.13,97.13,2150
314,97.13,97.14,97.12,97.13,3000
315,97.12,97.14,97.12,97.13,1499
316,97.15,97.15,97.12,97.12,2900
317,97.1401,97.1401,97.13,97.14,500
318,97.14,97.14,97.12,97.14,2400
319,97.15,97.16,97.143,97.143,2319
320,97.16,97.165,97.14,97.1527,3075
321,97.15,97.16,97.14,97.16,1791
322,97.16,97.18,97.15,97.15,2300
323,97.14,97.148,97.14,97.148,212
324,97.17,97.18,97.125,97.15,3083
325,97.15,97.166,97.15,97.16,1900
326,97.15,97.15,97.13,97.15,2500
327,97.125,97.15,97.125,97.13,1900
328,97.11,97.12,97.11,97.12,745
329,97.16,97.17,97.115,97.115,3500
330,97.15,97.16,97.15,97.16,1100
331,97.16,97.18,97.16,97.16,2441
332,97.15,97.16,97.15,97.15,1000
333,97.17,97.17,97.13,97.14,4004
334,97.1,97.15,97.1,97.15,4576
335,97.19,97.19,97.12,97.12,3604
336,97.15,97.18,97.14,97.18,4696
337,97.17,97.17,97.11,97.15,5623
338,97.18,97.18,97.17,97.17,2400
339,97.18,97.19,97.16,97.18,4604
340,97.18,97.18,97.15,97.16,3006
341,97.185,97.2,97.18,97.19,4354
342,97.21,97.21,97.18,97.18,2404
343,97.1925,97.22,97.19,97.2,6670
344,97.32,97.32,97.195,97.2,10293
345,97.32,97.32,97.3,97.32,1850
346,97.32,97.32,97.29,97.3,2000
347,97.32,97.33,97.31,97.32,3800
348,97.39,97.41,97.32,97.32,10502
349,97.42,97.44,97.4,97.4,5137
350,97.41,97.45,97.4,97.42,3031
351,97.39,97.4,97.38,97.4,3049
352,97.47,97.47,97.3868,97.39,2011
353,97.48,97.48,97.45,97.46,5504
354,97.44,97.48,97.42,97.48,4516
355,97.42,97.4327,97.42,97.4327,1874
356,97.37,97.42,97.338,97.42,5342
357,97.44,97.44,97.38,97.38,2000
358,97.41,97.43,97.4,97.43,4000
359,97.37,97.4,97.37,97.4,3400
360,97.37,97.38,97.37,97.37,800
361,97.3,97.36,97.3,97.36,3100
362,97.31,97.31,97.27,97.29,4805
363,97.32,97.32,97.3,97.3,2229
364,97.31,97.31,97.31,97.31,600
365,97.375,97.43,97.36,97.41,3300
366,97.37,97.38,97.33,97.35,2403
367,97.3805,97.39,97.35,97.36,3823
368,97.37,97.38,97.37,97.38,4594
369,97.4,97.4,97.38,97.39,4759
370,97.33,97.44,97.33,97.41,3500
371,97.31,97.34,97.29,97.34,4268
372,97.27,97.3,97.27,97.29,3009
373,97.28,97.295,97.26,97.27,5909
374,97.26,97.28,97.245,97.28,6200
375,97.3025,97.32,97.265,97.265,6850
376,97.27,97.33,97.265,97.31,3930
377,97.255,97.28,97.2538,97.2538,7040
378,97.23,97.3,97.23,97.26,5745
379,97.23,97.235,97.16,97.23,8050
380,97.2,97.22,97.18,97.22,6897
381,97.215,97.23,97.2,97.2,7050
382,97.2,97.23,97.18,97.22,6491
383,97.19,97.21,97.18,97.19,8512
384,97.21,97.21,97.16,97.18,10746
385,97.18,97.2,97.17,97.2,10300
386,97.18,97.19,97.17,97.18,13861
387,97.26,97.26,97.18,97.19,17309
388,97.22,97.29,97.21,97.26,17569
389,97.31,97.35,97.21,97.21,26547
a1444743000,96.56,96.84,96.54,96.54,20900
1,96.61,96.79,96.52,96.52,2000
2,96.39,96.605,96.35,96.57,1230
3,96.29,96.33,96.11,96.2,5580
4,96.02,96.21,96.02,96.2,5550
5,96.06,96.09,95.87,96.02,9650
6,96.27,96.27,96.03,96.03,2586
7,96.3,96.38,96.11,96.38,8527
8,96.33,96.33,96.23,96.25,400
9,96.37,96.37,96.33,96.36,1650
10,96.36,96.36,96.25,96.26,2000
11,96.39,96.39,96.37,96.37,800
12,96.36,96.45,96.36,96.41,6120
13,96.27,96.41,96.22,96.375,9060
14,96.34,96.36,96.13,96.23,7240
15,96.35,96.4,96.3,96.36,12526
16,96.24,96.38,96.23,96.32,15180
17,96.41,96.45,96.16,96.3,5410
18,96.4,96.48,96.34,96.41,2500
19,96.37,96.44,96.37,96.41,4000
20,96.37,96.43,96.354,96.37,3400
21,96.32,96.49,96.32,96.38,4300
22,96.4,96.47,96.32,96.32,2500
23,96.53,96.53,96.37,96.4,3700
24,96.44,96.46,96.34,96.45,1400
25,96.34,96.384,96.3,96.384,2000
26,96.34,96.34,96.27,96.29,1000
27,96.35,96.44,96.28,96.28,5193
28,96.36,96.43,96.34,96.37,900
29,96.46,96.52,96.43,96.43,2460
30,96.59,96.64,96.46,96.46,1707
31,96.7,96.72,96.55,96.55,2700
32,96.61,96.7,96.61,96.67,2009
33,96.79,96.79,96.61,96.61,2000
34,96.7,96.76,96.67,96.74,820
35,96.8,96.8,96.72,96.72,1000
36,96.78,96.78,96.73,96.75,2174
37,96.76,96.77,96.74,96.74,1800
38,96.69,96.72,96.68,96.71,800
39,96.81,96.84,96.72,96.72,3100
40,96.75,96.85,96.75,96.8,2700
41,96.91,96.91,96.75,96.75,1856
42,96.74,96.89,96.74,96.87,2900
43,96.77,96.8,96.67,96.71,2334
44,96.83,96.85,96.77,96.77,2100
45,96.85,96.85,96.67,96.79,9184
46,96.82,96.82,96.73,96.76,3690
47,96.82,96.82,96.78,96.79,1600
48,96.83,96.83,96.82,96.82,400
49,96.81,96.83,96.81,96.83,700
50,96.8,96.836,96.75,96.836,3750
51,96.86,96.86,96.79,96.79,2100
52,96.81,96.81,96.72,96.81,4304
53,96.77,96.78,96.76,96.76,700
54,96.78,96.79,96.73,96.78,3145
55,96.74,96.82,96.74,96.7901,424
56,96.87,96.87,96.78,96.78,900
57,96.99,97.02,96.89,96.89,3700
58,96.89,97,96.89,97,2950
59,96.845,96.89,96.84,96.89,1600
60,96.87,96.96,96.83,96.83,18928
61,96.93,96.99,96.89,96.89,3421
62,96.82,96.93,96.78,96.93,3750
63,96.74,96.85,96.74,96.8,5400
64,96.89,96.92,96.69,96.72,26288
65,96.89,96.92,96.89,96.9099,1850
66,97,97,96.92,96.92,800
67,97.02,97.06,97.01,97.06,3800
68,96.98,97.01,96.9564,97.01,1600
69,96.98,97.02,96.98,96.99,900
70,97.0055,97.03,97.0055,97.02,3332
71,97.03,97.03,96.95,97,2700
72,97.07,97.07,97,97.03,1411
73,97.05,97.1,97.03,97.1,8012
75,96.97,97.06,96.97,97.05,1600
76,97.02,97.04,97.01,97.01,800
77,97.04,97.05,97.01,97.03,2000
78,97.16,97.31,97.0224,97.0224,23957
79,97.185,97.21,97.16,97.16,2209
80,97.06,97.2,97.06,97.19,2600
81,97.15,97.16,97.04,97.04,2500
82,97.2,97.2,97.15,97.18,1100
83,97.13,97.15,97.13,97.15,600
84,97.08,97.09,97.03,97.08,2100
85,97.14,97.14,97.09,97.09,1200
86,97.3,97.3,97.17,97.17,1032
87,97.2804,97.35,97.26,97.31,4073
88,97.25,97.26,97.19,97.26,6677
89,97.3,97.3,97.25,97.25,800
90,97.28,97.35,97.28,97.33,6890
91,97.33,97.33,97.24,97.26,2000
92,97.31,97.33,97.28,97.31,13300
93,97.33,97.4,97.33,97.33,3925
94,97.37,97.43,97.31,97.33,5201
95,97.51,97.52,97.39,97.39,3682
96,97.46,97.53,97.46,97.49,9380
97,97.374,97.41,97.36,97.41,934
98,97.37,97.42,97.37,97.38,1900
99,97.42,97.46,97.36,97.37,2300
100,97.42,97.42,97.38,97.386,1920
101,97.48,97.485,97.4,97.4,3900
102,97.52,97.54,97.5,97.5,2600
103,97.6,97.62,97.52,97.55,4150
104,97.55,97.63,97.55,97.63,900
105,97.39,97.49,97.39,97.42,2000
106,97.47,97.57,97.41,97.41,16993
107,97.53,97.58,97.49,97.49,4037
108,97.52,97.52,97.46,97.51,2072
109,97.61,97.61,97.53,97.53,500
110,97.58,97.6,97.565,97.59,2862
111,97.64,97.67,97.58,97.61,4421
112,97.63,97.66,97.59,97.65,4000
113,97.73,97.73,97.65,97.65,3148
114,97.61,97.74,97.61,97.72,1800
115,97.52,97.56,97.46,97.56,2400
116,97.5,97.52,97.48,97.49,2200
117,97.51,97.51,97.46,97.5,8009
118,97.48,97.52,97.47,97.51,4300
119,97.55,97.55,97.49,97.49,2654
120,97.61,97.61,97.545,97.545,5155
121,97.62,97.62,97.59,97.59,2200
122,97.657,97.696,97.63,97.63,5724
123,97.6487,97.66,97.62,97.65,2660
124,97.59,97.68,97.59,97.64,2350
125,97.62,97.62,97.56,97.56,790
126,97.59,97.61,97.51,97.61,4971
127,97.57,97.63,97.57,97.61,3367
128,97.71,97.71,97.59,97.59,2707
129,97.7,97.72,97.67,97.67,5290
130,97.71,97.71,97.69,97.7,400
131,97.72,97.7498,97.69,97.72,7040
132,97.65,97.73,97.64,97.73,9314
133,97.69,97.69,97.62,97.66,2200
134,97.65,97.68,97.65,97.68,915
135,97.75,97.77,97.635,97.66,3600
136,97.79,97.81,97.73,97.7456,5295
137,97.76,97.86,97.75,97.78,5857
138,97.79,97.79,97.72,97.75,13383
139,97.88,97.88,97.78,97.785,7896
140,97.91,97.94,97.87,97.87,3477
141,97.91,97.91,97.85,97.91,5306
142,97.79,97.89,97.77,97.89,2827
143,97.82,97.82,97.77,97.7727,1300
144,97.82,97.82,97.79,97.79,3500
145,97.89,97.89,97.81,97.81,5446
146,97.89,97.89,97.88,97.88,400
147,97.88,97.88,97.84,97.88,4054
148,97.93,97.93,97.84,97.85,3653
149,97.97,97.98,97.87,97.94,7060
150,97.98,97.98,97.94,97.969,2692
151,97.97,98.01,97.93,97.94,6400
152,98.03,98.05,98.01,98.01,1645
153,97.96,98.03,97.96,98.03,3663
154,97.94,97.95,97.93,97.95,3200
155,97.87,97.93,97.87,97.93,1200
156,97.78,97.8201,97.78,97.8201,1100
157,97.78,97.81,97.77,97.78,6700
158,97.82,97.85,97.74,97.77,3450
159,97.82,97.83,97.81,97.81,900
160,97.8,97.83,97.79,97.81,1700
161,97.76,97.77,97.72,97.77,3800
162,97.79,97.79,97.73,97.77,2900
163,97.79,97.8,97.77,97.78,900
164,97.81,97.83,97.7906,97.82,1600
165,97.8465,97.8465,97.846,97.846,300
166,97.75,97.81,97.75,97.81,1995
167,97.745,97.75,97.72,97.72,2000
168,97.79,97.79,97.73,97.73,2480
169,97.86,97.86,97.77,97.78,2979
170,97.8,97.84,97.76,97.84,5290
171,97.83,97.85,97.79,97.79,3823
172,97.83,97.83,97.8,97.81,2595
173,97.8458,97.86,97.83,97.84,2907
174,97.91,97.91,97.84,97.84,3317
175,97.95,97.96,97.89,97.92,2800
176,97.99,98.01,97.98,97.98,3033
177,97.9,97.97,97.88,97.97,7150
178,97.85,97.91,97.85,97.89,7900
179,97.9,97.91,97.85,97.86,7325
180,97.8,97.89,97.8,97.857,1884
181,97.84,97.84,97.81,97.81,2372
182,97.78,97.83,97.78,97.82,2633
183,97.77,97.82,97.77,97.8,4054
184,97.78,97.79,97.77,97.79,1700
185,97.77,97.79,97.76,97.79,900
186,97.76,97.8,97.76,97.77,2000
187,97.78,97.78,97.77,97.77,400
188,97.69,97.76,97.69,97.76,4595
189,97.735,97.74,97.71,97.71,3600
190,97.69,97.76,97.68,97.74,7202
191,97.66,97.705,97.65,97.7,2500
192,97.66,97.72,97.65,97.65,3772
193,97.68,97.7,97.65,97.65,3100
194,97.66,97.69,97.66,97.67,1800
195,97.67,97.67,97.61,97.66,7751
196,97.63,97.67,97.63,97.65,1400
197,97.84,97.84,97.61,97.63,24681
198,97.81,97.92,97.8,97.81,14980
199,97.756,97.82,97.75,97.82,4250
200,97.73,97.79,97.73,97.77,2200
201,97.65,97.75,97.65,97.73,3190
202,97.68,97.71,97.67,97.67,3900
203,97.67,97.69,97.67,97.68,1500
204,97.66,97.69,97.64,97.656,1862
205,97.64,97.7,97.64,97.65,1300
206,97.58,97.66,97.5,97.66,4911
207,97.55,97.59,97.55,97.59,1300
208,97.5,97.59,97.5,97.59,1100
209,97.47,97.56,97.47,97.52,3403
210,97.44,97.45,97.44,97.45,900
211,97.43,97.44,97.39,97.43,2810
212,97.5,97.54,97.4,97.4,8873
213,97.49,97.505,97.49,97.49,1605
214,97.5,97.51,97.44,97.51,2355
215,97.52,97.52,97.47,97.48,3649
216,97.48,97.53,97.46,97.53,1650
217,97.5,97.5,97.48,97.48,700
218,97.54,97.545,97.51,97.51,1600
219,97.53,97.53,97.46,97.53,4828
220,97.49,97.52,97.47,97.515,2400
221,97.45,97.49,97.45,97.48,2608
222,97.64,97.64,97.49,97.49,6773
223,97.67,97.67,97.59,97.62,3200
224,97.6,97.68,97.6,97.67,3400
225,97.58,97.6,97.55,97.6,2480
226,97.55,97.565,97.55,97.565,700
227,97.59,97.59,97.51,97.53,3098
228,97.58,97.61,97.57,97.6,3009
229,97.6,97.6,97.56,97.59,3000
230,97.61,97.64,97.6,97.61,2600
231,97.65,97.65,97.61,97.62,2400
232,97.58,97.65,97.57,97.65,5600
233,97.57,97.59,97.56,97.59,2400
234,97.57,97.62,97.57,97.59,3500
235,97.61,97.61,97.57,97.57,1000
236,97.62,97.67,97.61,97.61,2716
237,97.66,97.66,97.6,97.63,2508
238,97.69,97.69,97.58,97.62,5600
239,97.71,97.73,97.69,97.7,3000
240,97.75,97.77,97.72,97.72,4800
241,97.69,97.76,97.69,97.76,4025
242,97.59,97.67,97.59,97.67,4200
243,97.56,97.61,97.55,97.58,4600
244,97.51,97.57,97.51,97.55,3996
245,97.52,97.52,97.5,97.51,2000
246,97.4,97.5,97.39,97.5,3550
247,97.43,97.46,97.37,97.37,4000
248,97.36,97.44,97.36,97.44,300
249,97.39,97.4,97.36,97.36,2600
250,97.39,97.45,97.37,97.42,2600
251,97.38,97.39,97.33,97.39,3000
252,97.41,97.44,97.39,97.39,2686
253,97.38,97.39,97.37,97.39,2430
254,97.36,97.36,97.33,97.36,2714
255,97.33,97.35,97.31,97.33,2200
256,97.5,97.51,97.35,97.35,4328
257,97.395,97.49,97.395,97.49,3500
258,97.36,97.43,97.345,97.394,12110
259,97.29,97.37,97.29,97.37,3100
260,97.3,97.3,97.2692,97.27,1752
261,97.4,97.4,97.28,97.28,1393
262,97.36,97.41,97.36,97.37,3901
263,97.33,97.35,97.3,97.35,1300
264,97.32,97.32,97.32,97.32,100
265,97.26,97.3,97.26,97.3,1500
266,97.29,97.29,97.2,97.27,3840
267,97.15,97.24,97.13,97.24,9225
268,97.18,97.18,97.12,97.13,2102
269,97.11,97.1401,97.11,97.1401,1257
270,97.13,97.17,97.11,97.11,3900
271,97.07,97.14,97.07,97.14,6432
272,97.11,97.16,97.06,97.06,2080
273,97.09,97.11,97.08,97.11,1000
274,97.11,97.11,97.09,97.1,1800
275,97.02,97.11,96.99,97.09,9842
276,97.03,97.04,97.02,97.02,2309
277,97.06,97.06,96.98,97.01,1711
278,97.1,97.11,97.07,97.08,1200
279,97.07,97.125,97.07,97.11,4081
280,96.98,97.06,96.98,97.06,3201
281,97.01,97.01,96.98,96.98,3500
282,97.04,97.04,97.01,97.02,1200
283,97.083,97.083,97.05,97.05,600
284,97.09,97.09,97.05,97.08,1400
285,97.05,97.05,97.03,97.04,1000
286,97.03,97.04,96.99,97.03,3700
287,97.12,97.12,97.05,97.05,700
288,97.04,97.13,97.04,97.13,1700
289,97.01,97.01,97.01,97.01,100
290,96.96,97,96.96,97,700
291,96.93,97.01,96.92,96.95,3300
292,96.97,96.97,96.9,96.93,2126
293,97.045,97.07,96.98,96.98,2600
294,97,97.05,97,97.0497,1479
295,96.94,97,96.94,97,2850
296,97,97.04,96.97,96.97,3700
297,96.99,97.04,96.97,97.01,3300
298,97.01,97.01,96.955,96.96,1400
299,97.034,97.034,97.01,97.03,1120
300,97.05,97.06,97.01,97.06,3690
301,96.9,97.04,96.9,97.02,2600
302,97.02,97.02,96.88,96.92,3442
303,97.02,97.02,96.96,97.02,2804
304,97.04,97.06,97.02,97.03,2250
305,97.01,97.04,96.99,97.04,2350
306,97.1,97.1,97.02,97.02,800
307,97.09,97.09,97.05,97.08,3100
308,97.08,97.11,97.08,97.09,2150
309,97.1,97.11,97.08,97.085,2100
310,97.08,97.11,97.08,97.105,1600
311,97.06,97.1,97.06,97.08,4370
312,97.02,97.07,97.005,97.05,4150
313,97.05,97.05,97.03,97.03,1600
314,97.03,97.06,97.03,97.06,2000
315,97.07,97.08,97.02,97.02,1900
316,97.09,97.11,97.05,97.06,4200
317,97.11,97.12,97.1,97.1,1900
318,97.09,97.13,97.09,97.13,1360
319,97.165,97.18,97.11,97.11,3500
320,97.13,97.15,97.13,97.15,1200
321,97.07,97.12,97.06,97.12,1200
322,97.09,97.09,97.06,97.06,4000
323,97.09,97.1,97.06,97.085,5116
324,97.16,97.18,97.11,97.11,3211
325,97.14,97.18,97.13,97.16,3250
326,97.18,97.18,97.1366,97.14,3150
327,97.18,97.18,97.14,97.16,4100
328,97.18,97.21,97.18,97.19,3599
329,97.19,97.19,97.15,97.15,1954
330,97.198,97.21,97.18,97.2,1870
331,97.11,97.19,97.11,97.18,1900
332,97.15,97.15,97.08,97.115,9983
333,97.18,97.18,97.14,97.17,37590
334,97.18,97.18,97.14,97.17,5838
335,97.16,97.18,97.14,97.18,5846
336,97.15,97.15,97.14,97.15,1700
337,97.13,97.16,97.11,97.15,6860
338,97.16,97.17,97.13,97.14,4150
339,97.17,97.2,97.15,97.15,3300
340,97.22,97.23,97.185,97.19,6784
341,97.26,97.26,97.21,97.22,5100
342,97.32,97.32,97.28,97.28,1900
343,97.2,97.29,97.2,97.29,3300
344,97.19,97.205,97.12,97.19,5188
345,97.2,97.23,97.19,97.19,3780
346,97.15,97.2,97.15,97.2,4350
347,97.13,97.18,97.13,97.15,4700
348,97.16,97.18,97.1,97.12,6601
349,97.1,97.15,97.07,97.15,6300
350,97.12,97.12,97.08,97.1,4198
351,97.13,97.13,97.06,97.09,2306
352,97.02,97.13,97.02,97.13,3406
353,97.07,97.1,97.02,97.02,4794
354,97.04,97.11,97.03,97.08,3900
355,97.06,97.06,97.03,97.04,3182
356,97.01,97.05,96.97,97.042,6041
357,97.01,97.04,97.01,97.01,3700
358,96.99,97.03,96.98,97.02,4720
359,97,97.05,96.98,96.98,3335
360,97.052,97.08,96.975,96.99,4800
361,97.08,97.08,96.99,97.04,5050
362,97.12,97.15,97.07,97.07,6500
363,97.11,97.155,97.09,97.13,4215
364,97.05,97.12,97.05,97.11,4800
365,97.01,97.04,96.98,97.04,5050
366,97.01,97.02,96.96,97.02,5826
367,97.02,97.06,97.02,97.03,3977
368,97.03,97.11,97.03,97.04,4622
369,97.09,97.125,97.02,97.03,6186
370,97.085,97.12,97.05,97.07,4896
371,97.08,97.12,97.07,97.08,8171
372,97.11,97.11,97.03,97.07,7100
373,97.12,97.15,97.11,97.11,6146
374,97.135,97.155,97.07,97.13,9610
375,97.11,97.17,97.09,97.15,9804
376,97.19,97.2,97.11,97.11,8300
377,97.23,97.24,97.18,97.19,12583
378,97.2,97.235,97.2,97.23,6932
379,97.26,97.28,97.205,97.21,10756
380,97.23,97.25,97.23,97.25,17715
381,97.19,97.22,97.18,97.22,17843
382,97.18,97.215,97.16,97.2,12313
383,97.19,97.22,97.19,97.19,6453
384,97.16,97.22,97.16,97.19,10974
385,97.25,97.26,97.12,97.16,27049
386,97.27,97.31,97.19,97.245,27183
387,97.25,97.27,97.2,97.27,24763
388,97.22,97.26,97.2,97.245,29870
389,97.18,97.23,97.15,97.22,30755
390,97.21,97.23,97.11,97.19,38892
a1444829400,96.85,96.85,96.85,96.85,10121
1,96.76,97.01,96.76,97.01,300
2,96.85,96.963,96.84,96.87,900
3,97.02,97.02,96.765,96.765,412
4,97.02,97.02,97.01,97.01,200
5,97.02,97.02,97.02,97.02,100
6,97.12,97.15,96.985,97.02,4177
7,97.08,97.125,96.95,97.12,1100
8,96.96,96.96,96.96,96.96,100
9,96.995,97.06,96.875,96.96,14141
10,96.9343,97.04,96.91,96.99,2000
11,97.04,97.05,96.9875,97.01,1800
12,96.94,97.02,96.79,96.98,5400
13,97.01,97.02,96.97,96.98,1400
14,97.09,97.09,97.01,97.02,2810
15,97.21,97.22,97.055,97.055,1860
16,97.07,97.18,97.05,97.18,5800
17,97.13,97.13,97.1,97.11,6500
18,97.17,97.21,97.08,97.13,5400
19,97.225,97.24,97.17,97.185,2148
20,97.385,97.42,97.26,97.26,900
21,97.665,97.74,97.41,97.42,4329
22,97.635,97.68,97.56,97.62,6416
23,97.93,97.93,97.61,97.655,10090
24,97.86,97.9304,97.83,97.89,6549
25,97.67,97.87,97.53,97.85,18622
26,97.58,97.67,97.49,97.61,9350
27,97.53,97.65,97.53,97.58,7100
28,97.58,97.58,97.47,97.53,3300
29,97.62,97.67,97.54,97.57,2200
30,97.63,97.75,97.63,97.67,2500
31,97.72,97.8,97.63,97.66,8050
32,97.75,97.76,97.71,97.71,600
33,97.78,97.824,97.75,97.75,5620
34,97.78,97.83,97.78,97.83,500
35,98,98,97.85,97.85,1300
36,98.07,98.11,98.04,98.06,2000
37,97.98,98.062,97.96,98.062,5722
38,98.08,98.11,97.96,97.98,6550
39,98.1297,98.16,98.08,98.08,4711
40,98.08,98.11,97.9501,98.09,6262
41,98.015,98.14,97.97,98.12,8000
42,98.09,98.09,97.905,97.996,6730
43,98.14,98.14,98.06,98.06,1400
44,98.14,98.16,98.12,98.12,854
45,98.14,98.17,98.11,98.16,3000
46,97.95,98.08,97.95,98.07,3700
47,98.07,98.1,98,98,2000
48,98.0999,98.1,98.06,98.09,4512
49,98.2,98.2,98.06,98.06,4500
50,98.05,98.18,98.05,98.18,3450
51,98.05,98.07,97.99,98.05,4154
52,97.94,98.03,97.94,98.01,2200
53,97.92,97.97,97.9,97.95,13481
54,97.91,97.96,97.91,97.93,3442
55,97.875,97.89,97.79,97.88,6800
56,97.88,97.95,97.88,97.89,3650
57,97.74,97.83,97.7,97.83,2450
58,97.8,97.85,97.705,97.705,2200
59,97.79,97.83,97.79,97.83,5040
60,97.595,97.78,97.56,97.78,10251
61,97.59,97.63,97.5,97.59,3900
62,97.55,97.55,97.46,97.525,11454
63,97.64,97.65,97.55,97.55,3415
64,97.64,97.64,97.56,97.64,5845
65,97.59,97.63,97.56,97.63,1800
66,97.48,97.59,97.455,97.59,2000
67,97.41,97.52,97.41,97.49,3090
68,97.34,97.43,97.32,97.43,2300
69,97.155,97.36,97.14,97.35,9281
70,97.23,97.25,97.16,97.18,4456
71,97.1925,97.21,97.12,97.19,3966
72,97.18,97.2,97.1,97.2,2200
73,97.19,97.2,97.15,97.155,28344
74,97.13,97.2,97.11,97.19,4525
75,97.09,97.12,97.09,97.11,900
76,97.09,97.1,97,97.08,6028
77,97.17,97.2,97.06,97.09,11063
78,97.14,97.19,97.06,97.19,3150
79,97.19,97.2,97.15,97.15,5950
80,97.12,97.2,97.12,97.17,2400
81,97.16,97.2,97.1,97.12,3098
82,97.245,97.25,97.17,97.17,7336
83,97.22,97.25,97.18,97.25,2770
84,97.18,97.21,97.16,97.21,5500
85,97.16,97.18,97.15,97.17,2000
86,97.18,97.2,97.12,97.145,4100
87,97.1,97.19,97.1,97.19,2667
88,97.27,97.28,97.1,97.1,4318
89,97.36,97.36,97.24,97.24,1740
90,97.38,97.41,97.37,97.37,1800
91,97.27,97.355,97.27,97.33,1100
92,97.28,97.31,97.235,97.24,2600
93,97.2,97.33,97.19,97.29,7500
94,97.195,97.23,97.14,97.21,7100
95,97.29,97.31,97.19,97.19,2100
96,97.22,97.29,97.21,97.29,2700
97,97.16,97.25,97.15,97.22,4000
98,97.09,97.1797,97.07,97.14,3800
99,97.19,97.19,97.04,97.08,7303
100,97.15,97.22,97.13,97.22,1833
101,97,97.15,97,97.15,1200
102,97.07,97.07,97,97.035,5049
103,97.08,97.12,97.07,97.07,8137
104,97.18,97.2,97.07,97.07,13096
105,97.16,97.196,97.14,97.19,4000
106,97.12,97.215,97.12,97.19,4807
107,97.24,97.29,97.14,97.14,2400
108,97.23,97.25,97.19,97.23,2400
109,97.35,97.35,97.18,97.25,3422
110,97.21,97.34,97.21,97.34,2600
111,97.18,97.23,97.18,97.21,1200
112,97.35,97.35,97.16,97.17,28600
113,97.34,97.41,97.34,97.34,3100
114,97.22,97.31,97.15,97.31,3500
115,97.25,97.28,97.2,97.23,26612
116,97.23,97.26,97.2,97.25,4700
117,97.265,97.28,97.23,97.23,2100
118,97.21,97.26,97.179,97.26,3242
119,97.25,97.29,97.17,97.21,3450
120,97.2297,97.2797,97.18,97.274,1634
121,97.165,97.2,97.165,97.195,1000
122,97.18,97.19,97.18,97.18,700
123,97.19,97.24,97.15,97.2,3700
124,97.02,97.16,97.02,97.14,3298
125,96.98,97.07,96.97,96.98,6572
126,96.99,97.02,96.95,96.98,2800
127,97.1,97.1,96.98,97,2600
128,97.1,97.13,97.08,97.08,2800
129,97.09,97.13,97.09,97.09,3500
130,97.12,97.16,97.09,97.115,4188
131,97.27,97.27,97.18,97.2,1700
132,97.335,97.37,97.27,97.27,4127
133,97.29,97.3297,97.25,97.315,1752
134,97.23,97.28,97.2,97.25,1500
135,97.235,97.28,97.235,97.26,539
136,97.17,97.23,97.14,97.23,2275
137,97.22,97.22,97.17,97.17,1332
138,97.2,97.28,97.2,97.235,4922
139,97.23,97.29,97.19,97.2,2400
140,97.11,97.22,97.11,97.22,600
141,97.14,97.2,97.13,97.13,2500
142,97.27,97.27,97.11,97.12,1500
143,97.41,97.43,97.36,97.37,1700
144,97.46,97.46,97.4,97.42,1100
146,97.42,97.46,97.4,97.46,1400
147,97.45,97.45,97.39,97.4,1537
148,97.55,97.55,97.4,97.43,1600
149,97.64,97.69,97.54,97.57,4500
150,97.61,97.7,97.59,97.675,1700
151,97.71,97.72,97.635,97.635,2100
152,97.62,97.76,97.62,97.69,4450
153,97.61,97.66,97.61,97.62,1500
154,97.6,97.63,97.505,97.61,2450
155,97.49,97.59,97.48,97.58,2800
156,97.32,97.48,97.29,97.48,1800
157,97.36,97.37,97.29,97.33,3187
158,97.41,97.41,97.35,97.35,800
159,97.28,97.42,97.28,97.42,3300
160,97.26,97.3,97.16,97.275,31739
161,97.19,97.3,97.14,97.29,12060
162,97.11,97.195,97.04,97.19,9621
163,97.17,97.2,97.11,97.11,3600
164,97.28,97.28,97.21,97.22,1900
165,97.4,97.41,97.38,97.38,600
166,97.57,97.57,97.47,97.4756,2242
167,97.52,97.56,97.51,97.51,1158
168,97.54,97.55,97.52,97.55,2117
169,97.39,97.5,97.39,97.5,1000
170,97.45,97.46,97.36,97.4,1962
171,97.4,97.44,97.3877,97.43,1100
172,97.45,97.45,97.38,97.41,1000
173,97.36,97.45,97.35,97.43,5110
174,97.39,97.39,97.34,97.34,2100
175,97.43,97.45,97.38,97.41,4530
176,97.45,97.45,97.41,97.41,800
177,97.45,97.46,97.42,97.45,1832
178,97.39,97.42,97.39,97.42,1200
179,97.43,97.43,97.43,97.43,200
180,97.5,97.5,97.46,97.47,2100
181,97.53,97.56,97.51,97.51,900
182,97.57,97.61,97.51,97.53,10207
183,97.58,97.58,97.509,97.54,7620
184,97.535,97.62,97.5,97.6,3000
185,97.52,97.54,97.5,97.52,5706
186,97.54,97.54,97.46,97.52,4875
187,97.39,97.54,97.39,97.515,2900
188,97.47,97.47,97.42,97.42,900
189,97.47,97.48,97.47,97.47,700
190,97.63,97.63,97.49,97.49,1500
191,97.7,97.7,97.62,97.64,2100
192,97.66,97.68,97.66,97.66,1000
193,97.72,97.72,97.69,97.69,500
194,97.78,97.78,97.72,97.75,1200
195,97.88,97.88,97.7663,97.7663,3995
196,97.89,97.89,97.83,97.87,2746
197,97.83,97.88,97.81,97.88,3400
198,97.84,97.84,97.84,97.84,100
199,97.88,97.89,97.86,97.88,6600
200,97.87,97.91,97.85,97.895,3370
201,97.96,97.96,97.81,97.85,5207
202,98,98.08,97.95,97.95,2886
204,98.05,98.1,98.04,98.04,2442
206,98.1,98.17,98.1,98.1,2760
208,98.01,98.07,98,98.05,1000
209,98.045,98.07,98.02,98.05,1360
210,98.06,98.06,98.02,98.02,2047
211,98.12,98.16,98.06,98.06,4054
212,98.056,98.15,98.056,98.15,1409
213,98.0478,98.07,98.01,98.02,2168
214,98.03,98.05,98.01,98.05,1600
215,97.92,98.025,97.92,98.02,2410
216,97.93,97.96,97.92,97.92,1300
217,98.03,98.03,97.94,97.95,2170
218,97.96,98.06,97.96,98.02,2700
219,97.94,97.97,97.93,97.96,1029
220,97.91,97.94,97.91,97.94,2251
221,97.98,98.03,97.96,97.96,2298
222,97.95,98,97.95,97.97,600
223,97.96,97.99,97.96,97.99,1400
224,98.06,98.06,97.99,97.99,1100
225,98.13,98.13,98.05,98.07,1400
226,98.12,98.12,98.08,98.11,5100
227,98.14,98.23,98.125,98.125,5987
228,98.11,98.13,98.11,98.12,1200
229,97.97,98.11,97.96,98.1,2050
230,98,98.01,97.96,97.97,3614
231,97.93,97.98,97.93,97.98,2200
232,97.85,97.92,97.8201,97.92,6751
233,97.81,97.86,97.769,97.83,3000
234,97.76,97.8,97.72,97.8,1000
235,97.69,97.72,97.69,97.72,1000
236,97.63,97.68,97.6,97.68,2100
237,97.56,97.66,97.56,97.64,3283
238,97.59,97.59,97.55,97.55,2150
239,97.56,97.59,97.51,97.59,2600
240,97.58,97.59,97.565,97.58,1703
241,97.52,97.57,97.5,97.56,3379
242,97.6,97.6,97.5,97.53,3324
243,97.62,97.62,97.56,97.6,3389
244,97.69,97.69,97.64,97.66,3600
245,97.63,97.71,97.63,97.71,2700
246,97.61,97.64,97.6,97.61,3001
247,97.62,97.62,97.57,97.61,3551
248,97.64,97.66,97.63,97.63,2548
249,97.53,97.65,97.53,97.63,3200
250,97.57,97.59,97.52,97.52,3670
251,97.42,97.55,97.42,97.55,3700
252,97.45,97.49,97.44,97.45,2684
253,97.44,97.47,97.44,97.46,2600
254,97.5,97.5,97.4,97.44,1552
255,97.58,97.58,97.52,97.52,2700
256,97.66,97.68,97.62,97.62,3594
257,97.46,97.69,97.37,97.69,8808
258,97.28,97.49,97.25,97.43,13000
259,97.38,97.38,97.28,97.3,4726
260,97.42,97.43,97.35,97.35,1486
261,97.48,97.48,97.4,97.43,1600
262,97.58,97.58,97.52,97.52,800
263,97.75,97.75,97.63,97.63,1114
264,97.78,97.82,97.71,97.76,2739
265,97.8,97.88,97.78,97.805,6503
266,97.79,97.86,97.78,97.8,2500
267,97.77,97.83,97.75,97.81,2300
268,97.76,97.88,97.745,97.745,6730
269,97.77,97.77,97.76,97.77,700
270,97.77,97.7704,97.76,97.77,1294
271,97.92,97.93,97.77,97.775,5000
272,97.77,97.97,97.76,97.92,6600
273,97.73,97.79,97.71,97.75,4603
274,97.62,97.73,97.62,97.73,2700
275,97.5,97.63,97.5,97.63,5600
276,97.39,97.44,97.33,97.44,8381
277,97.28,97.39,97.25,97.39,1100
278,97.18,97.3,97.18,97.2776,2626
279,97.31,97.31,97.08,97.18,6618
280,97.24,97.36,97.24,97.36,2540
281,97.26,97.28,97.15,97.28,4783
282,97.21,97.25,97.21,97.25,1420
283,97.23,97.32,97.23,97.25,3500
284,97.22,97.22,97.15,97.19,3000
285,97.3399,97.3399,97.25,97.25,2753
286,97.33,97.36,97.3033,97.3033,2034
287,97.32,97.32,97.27,97.32,1400
288,97.32,97.38,97.31,97.33,5140
289,97.28,97.31,97.24,97.31,1300
290,97.27,97.27,97.23,97.27,1900
291,97.32,97.39,97.29,97.29,4994
292,97.43,97.47,97.34,97.34,2300
293,97.38,97.424,97.36,97.42,1700
294,97.37,97.385,97.36,97.375,1900
295,97.39,97.39,97.33,97.36,2950
296,97.44,97.505,97.375,97.41,4300
297,97.385,97.44,97.38,97.44,1534
298,97.41,97.41,97.34,97.37,2671
299,97.5,97.52,97.36,97.4,35761
300,97.39,97.495,97.39,97.49,4200
301,97.37,97.39,97.3,97.39,4223
302,97.43,97.43,97.32,97.35,1760
303,97.46,97.48,97.44,97.47,1400
304,97.44,97.44,97.4,97.42,3000
305,97.32,97.44,97.26,97.43,5888
306,97.31,97.36,97.28,97.33,3750
307,97.25,97.3025,97.24,97.3,2300
308,97.19,97.25,97.17,97.25,5500
309,97.282,97.32,97.22,97.22,5228
310,97.35,97.35,97.24,97.28,2850
311,97.2,97.34,97.14,97.34,3507
312,97.26,97.27,97.17,97.24,2607
313,97.23,97.25,97.21,97.23,500
314,97.2,97.21,97.16,97.18,2400
315,97.235,97.28,97.2,97.2,2600
316,97.21,97.23,97.16,97.215,1100
317,97.3,97.3,97.19,97.19,2750
318,97.28,97.31,97.27,97.29,2327
319,97.29,97.31,97.23,97.27,4722
320,97.29,97.29,97.17,97.27,2600
321,97.2645,97.31,97.22,97.31,1500
322,97.22,97.255,97.22,97.255,1995
323,97.21,97.26,97.15,97.2,3200
324,97.12,97.23,97.12,97.21,4001
325,97.115,97.145,97.115,97.13,8052
326,97.11,97.115,97.05,97.11,10262
327,97.07,97.1,97.05,97.09,3750
328,97.12,97.12,97.06,97.07,2720
329,97.13,97.15,97.11,97.15,2047
330,97.25,97.27,97.16,97.16,2100
331,97.42,97.42,97.23,97.25,8798
332,97.32,97.42,97.32,97.41,4953
333,97.39,97.42,97.33,97.34,9280
334,97.39,97.43,97.37,97.39,6638
335,97.6,97.73,97.39,97.4,18263
336,97.52,97.68,97.52,97.62,19254
337,97.41,97.53,97.41,97.53,2650
338,97.43,97.455,97.42,97.43,3800
339,97.42,97.49,97.42,97.43,3617
340,97.53,97.54,97.41,97.41,2239
341,97.5,97.57,97.49,97.52,6350
342,97.42,97.55,97.39,97.55,4456
343,97.5,97.5,97.41,97.415,3390
344,97.49,97.58,97.49,97.51,5709
345,97.36,97.49,97.32,97.49,6810
346,97.27,97.39,97.27,97.38,5800
347,97.2,97.27,97.2,97.27,5580
348,97.18,97.23,97.18,97.215,4571
349,97.27,97.27,97.13,97.155,5600
350,97.18,97.32,97.18,97.27,7510
351,97.26,97.26,97.18,97.21,2900
352,97.18,97.265,97.15,97.265,4711
353,97.25,97.29,97.17,97.18,5309
354,97.3,97.3099,97.255,97.255,1204
355,97.298,97.31,97.26,97.3,3600
356,97.23,97.27,97.21,97.27,3300
357,97.3,97.36,97.2078,97.21,13200
358,97.26,97.29,97.25,97.29,2106
359,97.45,97.45,97.24,97.25,7973
360,97.35,97.43,97.35,97.43,4500
361,97.45,97.45,97.35,97.37,7850
362,97.4575,97.46,97.38,97.44,8500
363,97.27,97.45,97.27,97.45,8123
364,97.23,97.32,97.21,97.31,9595
365,97.322,97.33,97.23,97.24,4908
366,97.3,97.34,97.3,97.34,3458
367,97.31,97.32,97.28,97.31,5953
368,97.28,97.32,97.28,97.31,2900
369,97.31,97.31,97.16,97.27,10220
370,97.28,97.32,97.26,97.31,6491
371,97.38,97.38,97.24,97.27,6500
372,97.42,97.47,97.39,97.39,6602
373,97.33,97.415,97.32,97.41,5400
374,97.28,97.36,97.26,97.33,8743
375,97.13,97.31,97.12,97.31,6934
376,97.2,97.22,97.11,97.16,11959
377,97.3,97.3,97.19,97.2,5929
378,97.24,97.31,97.22,97.29,6352
379,97.28,97.28,97.19,97.22,7913
380,97.31,97.39,97.28,97.28,6731
381,97.27,97.35,97.25,97.31,13285
382,97.22,97.28,97.22,97.28,5991
383,97.29,97.29,97.17,97.23,29717
384,97.29,97.31,97.27,97.3,17375
385,97.21,97.29,97.2,97.27,14308
386,97.14,97.2,97.12,97.2,17151
387,97.3,97.35,97.13,97.14,27904
388,97.25,97.33,97.25,97.3,24217
389,97.26,97.28,97.23,97.25,33082
390,97.22,97.37,97.22,97.27,24784
a1444915920,98.74,98.98,97.81,97.81,31762
1,98.89,99,98.425,98.82,12352
2,98.79,98.89,98.6,98.89,13242
3,97.68,98.8,97.68,98.8,10649
4,97.68,97.8,97.4076,97.8,12746
5,98.1954,98.25,97.71,97.71,10201
6,98.51,98.62,98.268,98.29,6478
7,98.635,98.75,98.52,98.52,6937
8,98.59,98.88,98.5,98.678,27035
9,97.53,98.58,97.53,98.58,12810
10,97.64,97.7,97.54,97.54,2200
11,97.19,97.65,97.12,97.5045,14568
12,97.39,97.39,97.09,97.09,6400
13,97.54,97.96,97.39,97.39,16131
14,97.27,97.56,97.27,97.49,8600
15,97.53,97.5399,97.27,97.27,2100
16,97.49,97.5,97.36,97.4425,14310
17,97.37,97.57,97.36,97.41,15600
18,97.42,97.46,97.3119,97.4,17950
19,97.53,97.6,97.39,97.46,4500
20,97.53,97.55,97.46,97.54,7582
21,97.83,97.84,97.555,97.59,8100
22,97.64,97.9,97.58,97.9,6800
23,97.71,97.85,97.655,97.655,4100
24,97.6,97.722,97.59,97.71,46700
25,97.73,97.73,97.6,97.6,3800
26,97.65,97.76,97.65,97.67,6400
27,97.55,97.65,97.55,97.65,14998
28,97.55,97.62,97.55,97.574,30506
29,97.5,97.61,97.5,97.55,10180
30,97.55,97.56,97.47,97.53,14879
31,97.52,97.57,97.5,97.53,20040
32,97.5,97.53,97.5,97.52,19900
33,97.53,97.53,97.45,97.5,21265
34,97.51,97.54,97.45,97.53,13800
35,97.3299,97.52,97.29,97.51,17091
36,97.3175,97.42,97.31,97.32,2600
37,97.38,97.444,97.13,97.33,23505
38,97.47,97.51,97.38,97.38,17860
39,97.47,97.54,97.41,97.475,25627
40,97.5,97.5,97.45,97.47,3400
41,97.525,97.53,97.47,97.5,17994
42,97.25,97.58,97.21,97.53,13904
43,97.42,97.48,97.2555,97.2555,3225
44,97.335,97.5,97.335,97.43,5700
45,97.23,97.36,97.23,97.29,2011
46,97.11,97.17,97.11,97.17,1271
47,97.35,97.36,97.05,97.06,13003
48,97.31,97.3636,97.28,97.36,7321
49,97.25,97.258,97.25,97.258,400
50,97.1795,97.24,97.1795,97.24,300
51,97.03,97.22,97.03,97.22,1651
52,97.128,97.17,97.12,97.12,1016
53,97.24,97.33,97.09,97.14,15905
54,97.1,97.24,97.08,97.24,1542
55,97.08,97.16,96.91,97.11,8691
56,96.93,97.04,96.93,97.04,900
57,96.96,97.08,96.86,96.87,26168
58,96.85,97.02,96.85,97.02,3379
59,96.56,96.87,96.3101,96.84,8822
60,96.648,96.7999,96.565,96.57,6269
61,96.55,96.67,96.55,96.65,1800
62,96.64,96.69,96.557,96.61,3566
63,96.6292,96.7,96.62,96.7,2200
64,96.67,96.68,96.58,96.58,2994
65,96.707,96.7699,96.67,96.69,11400
66,96.67,96.74,96.67,96.74,1270
67,96.635,96.72,96.62,96.71,2756
68,96.83,96.84,96.62,96.62,3010
69,97.19,97.19,96.82,96.83,4050
70,97.11,97.19,97.03,97.19,3800
71,97.115,97.18,97.11,97.1799,4980
72,96.88,97.16,96.88,97.131,4211
73,97.2,97.33,96.915,96.915,15091
74,97.16,97.28,97.155,97.28,3697
75,97.18,97.4,97.18,97.23,10100
76,97.09,97.19,97.09,97.19,2100
77,97.1,97.2,96.97,97,5600
78,97.205,97.205,97.15,97.15,700
79,97.2,97.27,97.2,97.26,600
80,97.265,97.3,97.19,97.26,4000
81,97.33,97.33,97.26,97.26,1900
82,97.41,97.43,97.3,97.3,10922
83,97.35,97.44,97.35,97.4,700
84,97.465,97.5,97.42,97.42,6321
85,97.49,97.49,97.46,97.484,500
86,97.38,97.46,97.38,97.46,1120
87,97.34,97.35,97.28,97.35,3100
88,97.21,97.3,97.21,97.3,900
89,97.16,97.275,97.16,97.275,300
90,97.1,97.185,97.1,97.185,944
91,97.04,97.07,97.04,97.06,800
92,97.11,97.11,96.97,96.98,3600
93,97.145,97.16,97.03,97.075,14277
94,97.18,97.26,97.11,97.11,3000
95,97.37,97.37,97.205,97.21,7550
96,97.56,97.61,97.3475,97.365,7510
97,97.45,97.6,97.41,97.56,6642
98,97.465,97.5105,97.4201,97.51,1743
99,97.45,97.5099,97.45,97.465,1700
100,97.33,97.445,97.25,97.44,12500
101,97.405,97.43,97.35,97.35,6908
102,97.38,97.43,97.38,97.43,1100
103,97.3,97.36,97.3,97.33,500
104,97.2,97.28,97.2,97.28,800
105,97.35,97.38,97.22,97.22,12475
106,97.29,97.338,97.23,97.33,1600
107,97.33,97.39,97.26,97.26,5613
108,97.35,97.35,97.25,97.33,4230
109,97.41,97.46,97.38,97.38,5755
110,97.41,97.41,97.32,97.37,1900
111,97.43,97.43,97.38,97.4025,1739
112,97.38,97.39,97.34,97.39,1200
113,97.42,97.44,97.35,97.38,2200
114,97.37,97.4,97.11,97.36,10546
115,97.46,97.46,97.36,97.375,4197
116,97.48,97.54,97.46,97.46,3600
117,97.45,97.47,97.45,97.47,300
118,97.37,97.43,97.37,97.43,1770
119,97.39,97.39,97.36,97.36,2035
120,97.2801,97.38,97.28,97.38,1900
121,97.36,97.38,97.27,97.27,3800
122,97.32,97.45,97.32,97.43,3200
123,97.39,97.44,97.32,97.32,3800
124,97.31,97.44,97.31,97.44,1100
125,97.41,97.45,97.28,97.33,2751
126,97.41,97.43,97.395,97.42,1800
127,97.24,97.39,97.24,97.37,1900
128,97.31,97.31,97.24,97.24,2108
129,97.483,97.483,97.29,97.3,7877
130,97.345,97.44,97.33,97.44,2500
131,97.31,97.34,97.25,97.3,2090
132,97.32,97.37,97.32,97.37,500
133,97.335,97.35,97.25,97.29,7367
134,97.27,97.33,97.25,97.31,8659
135,97.195,97.25,97.17,97.25,2300
136,97.13,97.13,97.13,97.13,100
137,97.19,97.19,97.15,97.15,1300
138,97.15,97.15,97.14,97.14,400
139,97.1,97.12,97.02,97.08,3000
140,97.08,97.1,96.98,97.06,4700
141,97.02,97.12,96.98,97.06,4529
142,97.23,97.23,97.1,97.1,3900
143,97.32,97.41,97.23,97.23,6121
144,97.26,97.34,97.26,97.34,500
145,97.17,97.21,97.16,97.21,700
146,97.15,97.19,97.12,97.13,2500
147,97.21,97.25,97.19,97.19,1033
148,97.125,97.22,97.1,97.22,2038
149,97.135,97.135,97.1,97.11,400
150,97.18,97.2,97.1,97.1,1700
151,97.08,97.18,97.045,97.16,5592
152,97.18,97.18,97.09,97.12,3100
153,97.1,97.24,97.1,97.18,1800
154,97.055,97.1,97,97.1,2600
155,96.984,97.03,96.984,97.01,1000
156,96.965,97.02,96.95,97.02,2725
157,97.02,97.02,96.965,96.965,2700
158,97.14,97.14,97.015,97.015,4627
159,96.99,97.105,96.99,97.105,1841
160,96.92,96.96,96.92,96.96,200
161,96.985,96.985,96.89,96.93,5500
162,96.69,96.96,96.61,96.96,5800
163,96.63,96.69,96.63,96.64,1400
164,96.665,96.7399,96.63,96.66,4400
165,96.685,96.7,96.665,96.7,500
166,96.665,96.665,96.63,96.665,500
167,96.665,96.69,96.665,96.665,500
168,96.645,96.69,96.56,96.69,6600
169,96.6075,96.68,96.605,96.68,2000
170,96.64,96.7,96.58,96.61,2937
171,96.64,96.67,96.64,96.65,700
172,96.655,96.74,96.65,96.67,3017
173,96.69,96.69,96.635,96.65,1100
174,96.59,96.62,96.5,96.62,7900
175,96.6,96.62,96.54,96.6,3900
176,96.68,96.68,96.62,96.62,3780
177,96.64,96.71,96.64,96.68,1800
178,96.59,96.66,96.55,96.65,2100
179,96.61,96.655,96.59,96.59,5300
180,96.8,96.8,96.62,96.62,4500
181,96.73,96.78,96.7,96.77,2979
182,96.9,96.9,96.76,96.76,2750
183,96.9,96.9,96.875,96.9,700
184,96.93,96.97,96.86,96.92,5700
185,96.96,96.96,96.935,96.94,2150
186,97.01,97.01,96.92,96.96,1740
187,97.025,97.11,96.96,97.02,8311
188,97.03,97.08,97.01,97.025,3100
189,96.95,97.1,96.95,97.1,4000
190,96.91,96.97,96.89,96.96,3500
191,97.02,97.03,96.95,96.96,2800
192,97.03,97.03,97,97.02,900
193,97.16,97.16,97.0325,97.04,3464
194,97.055,97.165,97.055,97.153,2352
195,96.985,97.05,96.98,97.05,1100
196,96.96,96.985,96.96,96.985,200
197,97,97.02,96.9838,96.99,1900
198,96.92,96.99,96.92,96.99,1590
199,96.87,96.93,96.87,96.93,800
200,96.91,96.91,96.86,96.86,2487
201,96.6942,96.94,96.6942,96.9,4600
202,96.84,96.87,96.7175,96.72,3600
203,96.74,96.87,96.74,96.84,3730
204,96.68,96.72,96.68,96.72,400
205,96.64,96.68,96.64,96.66,2300
206,96.7,96.7,96.65,96.68,1000
207,96.74,96.74,96.69,96.71,2450
208,96.72,96.75,96.69,96.74,2231
209,96.77,96.77,96.74,96.755,1200
210,96.81,96.81,96.75,96.77,1600
211,96.84,96.84,96.78,96.81,2000
212,96.8,96.84,96.77,96.84,5600
213,96.81,96.84,96.79,96.82,3400
214,96.98,97,96.8,96.8,10463
215,97.03,97.03,96.98,96.98,900
216,97.13,97.17,96.97,97.03,8277
217,97.18,97.24,97.15,97.15,4400
218,97.11,97.2,97.11,97.15,2700
219,97.14,97.18,97.14,97.17,700
220,97.16,97.16,97.16,97.16,100
221,97.09,97.17,97.08,97.15,2400
222,97.05,97.14,97.05,97.09,2100
223,97.04,97.08,97.04,97.05,3600
224,96.97,97.05,96.94,97.03,2100
225,97.02,97.02,96.98,96.99,900
226,96.95,97,96.94,96.98,17455
227,96.9375,96.97,96.88,96.93,22904
228,96.924,97.01,96.91,96.95,9000
229,96.9,96.93,96.9,96.9225,700
230,96.826,96.88,96.79,96.87,1582
231,96.82,96.85,96.81,96.85,2200
232,96.87,96.87,96.8525,96.86,400
233,96.82,96.92,96.78,96.88,6200
234,96.885,96.91,96.82,96.82,1100
235,96.92,96.92,96.85,96.85,1400
236,96.82,96.91,96.82,96.89,14752
237,96.83,96.85,96.81,96.84,1905
238,96.84,96.86,96.83,96.83,1600
239,96.83,96.85,96.83,96.83,1200
240,96.78,96.84,96.78,96.83,2600
241,96.84,96.84,96.78,96.81,3300
242,96.87,96.87,96.83,96.84,2400
243,96.88,96.905,96.88,96.88,2000
244,97,97,96.87,96.89,2900
245,96.96,97.01,96.95,97.005,5350
246,97.07,97.07,96.975,96.975,2600
247,97.18,97.18,97.08,97.08,5500
248,97.18,97.19,97.15,97.18,1400
249,97.28,97.28,97.16,97.19,2911
250,97.29,97.3,97.25,97.26,2800
251,97.32,97.32,97.26,97.29,2550
252,97.36,97.36,97.32,97.32,400
253,97.32,97.32,97.32,97.32,100
254,97.34,97.37,97.34,97.36,2582
255,97.41,97.41,97.35,97.35,2300
256,97.5,97.5,97.39,97.42,5500
257,97.56,97.6,97.52,97.52,5499
258,97.78,97.78,97.555,97.57,7800
259,97.72,97.81,97.68,97.785,8914
260,97.74,97.83,97.74,97.75,2800
261,97.715,97.73,97.715,97.73,600
262,97.68,97.7,97.68,97.7,500
263,97.68,97.73,97.65,97.7,4800
264,97.71,97.71,97.63,97.67,5288
265,97.76,97.79,97.66,97.71,12950
266,97.8,97.82,97.76,97.78,2520
267,97.7,97.73,97.63,97.73,3195
268,97.71,97.78,97.62,97.68,15045
269,97.7,97.72,97.7,97.7,900
270,97.72,97.755,97.72,97.72,2100
271,97.72,97.76,97.71,97.73,2798
272,97.72,97.75,97.72,97.72,1700
273,97.9,97.9,97.74,97.75,7040
274,97.91,97.97,97.9,97.9,4487
275,97.94,97.94,97.89,97.92,3300
276,97.97,97.98,97.95,97.95,2100
277,97.9,97.98,97.9,97.97,2400
278,98.04,98.04,97.88,97.89,7343
279,98.0601,98.07,98.0208,98.04,2923
280,98.07,98.12,98,98.05,17400
281,98.08,98.13,98.07,98.09,4746
282,98.1,98.11,98.09,98.1,1500
283,98.01,98.11,98.01,98.09,3200
284,97.97,98.01,97.95,98.01,3300
285,98,98,97.95,97.96,1300
286,97.97,97.99,97.95,97.99,3600
287,97.86,97.978,97.86,97.978,3225
288,97.73,97.84,97.73,97.84,2300
289,97.57,97.79,97.53,97.76,7190
290,97.57,97.61,97.42,97.6,7540
291,97.555,97.58,97.555,97.58,400
292,97.37,97.57,97.37,97.57,4507
293,97.58,97.58,97.37,97.4,4640
294,97.68,97.7,97.58,97.58,2500
295,97.74,97.82,97.68,97.7,11330
296,97.8,97.88,97.73,97.73,6000
297,97.845,97.9,97.83,97.83,2300
298,97.82,97.85,97.79,97.8325,4500
299,97.84,97.86,97.83,97.83,11900
300,97.84,97.85,97.83,97.84,9550
301,97.84,97.86,97.83,97.84,5163
302,97.78,97.86,97.77,97.85,5040
303,97.91,97.946,97.77,97.77,6554
304,97.95,97.95,97.89,97.91,3508
305,98.0212,98.03,97.95,97.96,8244
306,98.1,98.11,98,98.01,6800
307,98.17,98.17,98.08,98.08,6255
308,98.24,98.26,98.14,98.14,6800
309,98.31,98.3399,98.2894,98.2894,3102
310,98.54,98.54,98.28,98.29,6600
311,98.54,98.61,98.497,98.52,8749
312,98.683,98.7,98.51,98.51,3871
313,98.64,98.64,98.6,98.64,9290
314,98.68,98.94,98.68,98.68,15613
315,98.9,98.97,98.64,98.67,10906
316,98.99,98.99,98.87,98.89,5000
317,99.34,99.35,98.99,99,23826
318,99.1,99.38,99.1,99.29,17425
319,98.81,99.07,98.81,99.07,13318
320,98.87,98.9,98.81,98.84,3102
321,99.04,99.05,98.84,98.88,4950
322,98.96,99.13,98.96,99.04,9835
323,98.89,99.01,98.875,98.99,5798
324,98.75,98.87,98.72,98.87,12349
325,98.91,99.12,98.74,98.78,30589
326,98.7,98.87,98.61,98.87,17816
327,98.4001,98.66,98.4001,98.65,7502
328,98.4,98.46,98.25,98.44,17650
329,98.38,98.4299,98.28,98.37,4200
330,98.49,98.56,98.43,98.43,4686
331,98.44,98.49,98.3501,98.49,7528
332,98.55,98.55,98.48,98.48,800
333,98.62,98.7,98.56,98.56,5533
334,98.68,98.71,98.625,98.64,3700
335,98.69,98.69,98.6,98.69,11600
336,98.77,98.79,98.69,98.6993,4501
337,98.65,98.86,98.65,98.78,7886
338,98.65,98.78,98.64,98.65,7144
339,98.75,98.75,98.65,98.67,2500
340,98.7,98.79,98.69,98.79,6753
341,98.75,98.75,98.7,98.71,4742
342,98.68,98.745,98.655,98.74,8118
343,98.74,98.76,98.68,98.68,3568
344,98.7,98.78,98.7,98.75,11108
345,98.74,98.76,98.66,98.7,9900
346,98.81,98.81,98.712,98.73,6741
347,98.855,98.88,98.77,98.83,11300
348,98.85,98.86,98.78,98.83,7400
349,98.96,98.98,98.85,98.85,21619
350,99,99.03,98.92,98.95,6459
351,98.91,99.02,98.89,99.02,11130
352,98.85,98.93,98.85,98.91,5870
353,99.035,99.04,98.88,98.88,6700
354,98.89,99.025,98.84,99.01,8063
355,98.98,99.035,98.877,98.877,6940
356,99.02,99.02,98.96,98.98,5071
357,99.16,99.18,99.01,99.02,11454
358,99.17,99.19,99.1,99.17,13638
359,99.1,99.18,99.09,99.15,15492
360,99.09,99.15,99.079,99.12,14673
361,98.99,99.1101,98.98,99.1,16081
362,98.8,99.02,98.78,99.01,25964
363,98.67,98.86,98.63,98.81,18230
364,98.59,98.68,98.525,98.67,17588
365,98.75,98.785,98.59,98.59,18304
366,98.81,98.85,98.685,98.74,11826
367,99.07,99.12,98.81,98.82,8072
368,99.14,99.17,99.01,99.07,14991
369,98.99,99.14,98.97,99.135,20312
370,99.02,99.04,98.96,98.99,12635
371,99.1,99.13,99.01,99.02,11843
372,99.09,99.12,99.07,99.1,14956
373,99.06,99.12,99.04,99.07,30606
374,99.07,99.076,99.03,99.076,16099
375,99.08,99.08,99.06,99.07,12270
376,99.195,99.2,99.06,99.08,14771
377,99.22,99.25,99.2,99.2,24323
378,99.23,99.24,99.21,99.225,21780
379,99.2,99.24,99.2,99.23,15847
380,99.16,99.205,99.11,99.2,10700
381,99.22,99.24,99.16,99.17,15627
382,99.32,99.36,99.23,99.23,31372
383,99.24,99.32,99.15,99.31,25634
384,99.28,99.32,99.2,99.24,27405
385,99.19,99.28,99.09,99.28,33767
386,99.27,99.31,99.19,99.19,35752
387,99.27,99.29,99.25,99.28,29316
388,99.21,99.33,99.15,99.28,38489
a1445002200,100.2,100.2,100.2,100.2,100
1,101.26,101.39,100.46,100.46,112188
2,101.16,101.35,100.77,101.25,9589
3,101.415,101.7,101.11,101.3,11845
4,101.59,101.86,101.43,101.52,16250
5,101.55,101.765,101.44,101.44,8094
6,101.16,101.58,100.98,101.47,10883
7,100.95,101.21,100.95,101.17,8988
8,101.13,101.165,100.92,101.02,14950
9,101.29,101.32,100.99,100.99,7670
10,100.99,101.36,100.9,101.28,28111
11,100.84,101.07,100.82,101.06,9490
12,101,101,100.79,100.84,9362
13,100.95,101.04,100.86,101,10180
14,101.01,101.01,100.7901,100.855,13535
15,101.12,101.13,100.92,100.975,12461
16,100.93,101.1,100.91,101.08,28630
17,100.78,100.94,100.76,100.925,5550
18,100.57,100.75,100.57,100.75,3900
19,100.57,100.69,100.52,100.57,6270
20,100.39,100.51,100.39,100.5,9000
21,100.31,100.48,100.28,100.46,15474
22,100.44,100.45,100.27,100.3,15488
23,100.34,100.51,100.34,100.42,4187
24,100.325,100.39,100.31,100.39,6000
25,100.32,100.34,100.27,100.325,7577
26,100.19,100.3,100.19,100.3,10920
27,100.1,100.2,100.1,100.2,6157
28,100.08,100.12,100.01,100.1,6700
29,100.305,100.305,100.06,100.06,7650
30,100.405,100.44,100.34,100.38,3200
31,100.16,100.45,100.13,100.43,7650
32,100.49,100.52,100.16,100.16,21710
33,100.46,100.51,100.45,100.49,3000
34,100.5,100.52,100.4025,100.44,4200
35,100.5,100.56,100.48,100.51,11625
36,100.5,100.53,100.46,100.5,5300
37,100.5,100.55,100.46,100.52,6024
38,100.5001,100.56,100.46,100.51,8040
39,100.59,100.59,100.53,100.54,3009
40,100.57,100.61,100.56,100.6,5400
41,100.58,100.63,100.54,100.565,4397
42,100.63,100.63,100.575,100.575,1259
43,100.72,100.72,100.64,100.64,6340
44,100.64,100.71,100.53,100.7,8217
45,100.67,100.7,100.63,100.63,9654
46,100.635,100.69,100.62,100.645,6610
47,100.65,100.69,100.65,100.65,3981
48,100.8,100.8,100.68,100.69,15729
49,100.66,100.81,100.65,100.81,27800
50,100.57,100.66,100.52,100.66,3400
51,100.39,100.55,100.39,100.52,16180
52,100.3501,100.42,100.35,100.39,6850
53,100.31,100.36,100.3,100.35,3524
54,100.29,100.35,100.26,100.3,8576
55,100.27,100.29,100.24,100.272,4365
56,100.25,100.28,100.22,100.26,7500
57,100.23,100.25,100.2,100.22,4150
58,100.19,100.22,100.18,100.21,8368
59,100.195,100.33,100.17,100.185,20968
60,100.28,100.28,100.175,100.175,7358
61,100.2,100.285,100.19,100.28,5400
62,100.15,100.2,100.15,100.185,7060
63,100.21,100.21,100.15,100.17,14929
64,100.29,100.29,100.21,100.21,5900
65,100.33,100.34,100.275,100.275,7200
66,100.38,100.38,100.29,100.29,3310
67,100.4,100.41,100.35,100.35,8138
68,100.41,100.42,100.34,100.41,6100
69,100.59,100.59,100.42,100.43,2200
70,100.55,100.61,100.54,100.59,2600
71,100.51,100.53,100.48,100.53,5633
72,100.52,100.57,100.5,100.5,2400
73,100.41,100.49,100.37,100.49,2600
74,100.29,100.41,100.28,100.41,2400
75,100.36,100.36,100.24,100.28,5580
76,100.24,100.35,100.23,100.35,4200
77,100.31,100.31,100.23,100.23,1800
78,100.3,100.35,100.3,100.3,3300
79,100.28,100.35,100.26,100.33,4346
80,100.19,100.29,100.19,100.28,7000
81,100.19,100.21,100.16,100.2,9850
82,100.3,100.31,100.1772,100.19,5853
83,100.36,100.36,100.3,100.31,4602
84,100.42,100.43,100.34,100.36,5050
85,100.455,100.459,100.41,100.43,2426
86,100.43,100.46,100.43,100.45,2108
87,100.51,100.51,100.43,100.43,7900
88,100.51,100.52,100.47,100.5,4600
89,100.44,100.53,100.44,100.5,3859
90,100.57,100.57,100.43,100.44,6558
91,100.59,100.61,100.56,100.56,3300
92,100.51,100.595,100.51,100.595,3300
93,100.69,100.73,100.535,100.54,9000
94,100.83,100.85,100.7,100.7,5717
95,100.87,100.87,100.83,100.85,2900
96,100.855,100.89,100.8,100.853,2650
97,100.9,100.91,100.82,100.87,5300
98,100.93,100.93,100.84,100.87,9297
99,100.98,101.01,100.9,100.92,6450
100,101.06,101.06,100.99,100.99,5800
101,101.11,101.11,101.065,101.07,3003
102,101.15,101.15,101.09,101.1,2510
103,101.08,101.18,101.08,101.13,7100
104,101.03,101.17,101.03,101.08,9100
105,101.1,101.11,100.9714,101.06,7600
106,101.12,101.15,101.09,101.11,6051
107,101.27,101.27,101.15,101.15,6248
108,101.29,101.31,101.26,101.28,5208
109,101.29,101.32,101.26,101.27,3100
110,101.3477,101.4,101.3,101.33,6603
111,101.16,101.3101,101.12,101.28,4745
112,101.21,101.21,101.14,101.16,6238
113,101.195,101.22,101.1875,101.1995,1612
114,101.21,101.21,101.12,101.18,10202
115,101.19,101.23,101.19,101.21,3800
116,101.22,101.23,101.19,101.22,5900
117,101.32,101.32,101.2,101.21,7875
118,101.28,101.31,101.26,101.29,1600
119,101.38,101.38,101.23,101.26,8595
120,101.43,101.43,101.32,101.41,9110
121,101.4,101.45,101.36,101.44,3000
122,101.36,101.42,101.35,101.37,7519
123,101.245,101.36,101.24,101.35,6035
124,101.27,101.29,101.24,101.28,2814
125,101.34,101.34,101.27,101.27,3357
126,101.33,101.34,101.29,101.34,3900
127,101.1,101.33,101.1,101.32,5310
128,101.12,101.12,101.05,101.07,4001
129,101.13,101.13,101.09,101.11,4532
130,101.072,101.14,101.072,101.13,2700
131,101.06,101.09,101.06,101.06,747
132,101.165,101.18,101.06,101.06,5698
133,101.12,101.16,101.1,101.15,3400
134,101.195,101.2,101.15,101.15,3162
135,101.16,101.2,101.14,101.2,3400
136,101.2,101.2,101.15,101.16,3400
137,101.19,101.22,101.19,101.2,6076
138,101.145,101.2,101.14,101.2,1900
139,101.18,101.2,101.13,101.13,2400
140,101.03,101.16,101.03,101.16,5700
141,100.95,101.02,100.95,101.01,3928
142,100.98,101.01,100.94,100.94,4022
143,101.01,101.02,100.97,100.97,4924
144,100.93,100.98,100.93,100.98,1300
145,100.902,100.92,100.87,100.9,4500
146,100.93,100.94,100.905,100.9104,3685
147,100.94,100.94,100.89,100.94,2773
148,100.98,101.04,100.95,100.95,5150
149,101,101.01,100.96,100.96,2600
150,101.07,101.07,101.01,101.02,1400
151,101.03,101.07,101.03,101.07,3010
152,101.14,101.14,101.045,101.05,6044
153,101.12,101.13,101.08,101.11,5765
154,101.21,101.21,101.14,101.14,5556
155,101.18,101.2,101.16,101.18,3040
156,101.2,101.25,101.195,101.195,4700
157,101.23,101.23,101.17,101.1928,2968
158,101.25,101.28,101.23,101.23,3400
159,101.22,101.25,101.22,101.25,2000
160,101.11,101.22,101.11,101.19,5922
161,101.1,101.13,101.03,101.1,6505
162,101.1,101.1,101.03,101.07,4165
163,101.2,101.2,101.1,101.1,2300
164,101.2,101.2064,101.13,101.2064,4321
165,101.2434,101.31,101.17,101.17,10231
166,101.23,101.25,101.2,101.23,4478
167,101.29,101.29,101.215,101.23,2210
168,101.41,101.42,101.29,101.29,4342
169,101.43,101.46,101.4,101.4,3900
171,101.4401,101.5,101.42,101.42,7464
172,101.52,101.54,101.47,101.47,3322
173,101.47,101.56,101.47,101.55,8000
174,101.45,101.52,101.45,101.51,5272
175,101.46,101.46,101.39,101.45,5485
176,101.5436,101.5645,101.5,101.5,1700
177,101.62,101.65,101.53,101.545,8659
178,101.65,101.65,101.57,101.61,2475
179,101.66,101.68,101.62,101.66,1900
180,101.69,101.69,101.6412,101.66,4605
181,101.66,101.69,101.64,101.672,9490
182,101.7,101.71,101.65,101.665,8043
183,101.7,101.735,101.7,101.71,4900
184,101.91,101.93,101.69,101.7,65486
185,102.2,102.22,101.82,101.89,35509
186,102.04,102.31,102.04,102.22,42016
187,102.1,102.36,102.06,102.08,21882
188,101.99,102.13,101.94,102.11,7325
189,102.2,102.32,101.995,101.995,16184
190,102.395,102.44,102.12,102.15,18748
191,102.24,102.53,102.165,102.42,22730
192,102.435,102.6,102.24,102.24,22731
193,102.59,102.67,102.4,102.4475,16122
194,102.78,102.85,102.59,102.63,27096
195,102.98,102.98,102.67,102.71,19681
196,103.01,103.26,102.91,103.02,34369
197,102.44,102.95,102.43,102.95,15512
198,102.34,102.5,102.24,102.5,5100
199,102.15,102.25,102.03,102.25,8750
200,101.99,102.08,101.99,102.08,1900
201,101.88,102.03,101.88,102.02,6400
202,101.73,101.885,101.73,101.885,4567
203,101.69,101.82,101.68,101.8,5278
204,101.6,101.69,101.47,101.675,7226
205,101.66,101.71,101.61,101.61,6383
206,101.85,101.85,101.64,101.65,3363
207,101.99,101.99,101.85,101.85,2394
208,102.02,102.02,101.99,101.99,400
209,102.1,102.14,101.95,101.95,7800
210,102.02,102.1,102.02,102.1,1150
211,101.9925,102.07,101.97,102.02,1700
212,101.96,102.01,101.92,102,3350
213,102.05,102.05,101.93,101.96,4300
214,102.2,102.2,102.05,102.05,7079
215,102.11,102.22,102.085,102.2,7717
216,101.97,102.11,101.94,102.11,6029
217,101.82,101.93,101.79,101.93,2875
218,101.63,101.79,101.63,101.79,5738
219,101.57,101.68,101.57,101.62,12351
220,101.65,101.66,101.59,101.59,3400
221,101.68,101.7,101.6,101.61,7520
222,101.7,101.7,101.68,101.7,2351
223,101.65,101.71,101.6301,101.7,6169
224,101.57,101.64,101.53,101.64,3400
225,101.64,101.64,101.57,101.57,4028
226,101.7,101.72,101.65,101.67,2900
227,101.77,101.77,101.676,101.676,4818
228,101.78,101.78,101.74,101.77,2950
229,101.78,101.78,101.76,101.78,2000
230,101.81,101.81,101.78,101.78,2600
231,101.79,101.81,101.78,101.81,2800
232,101.765,101.8002,101.76,101.79,3000
233,101.79,101.81,101.75,101.75,6575
234,101.84,101.87,101.7859,101.7859,4750
235,101.87,101.905,101.85,101.85,3226
236,101.78,101.9,101.78,101.9,3300
237,101.87,101.88,101.77,101.77,3548
238,101.95,101.97,101.87,101.88,4405
239,102.025,102.19,101.97,101.97,11830
240,101.885,102.04,101.88,102.01,18806
241,101.82,101.87,101.81,101.87,5817
242,101.59,101.8,101.59,101.8,10601
243,101.515,101.61,101.515,101.595,8309
244,101.41,101.53,101.41,101.53,9100
245,101.32,101.45,101.32,101.41,5400
246,101.29,101.36,101.29,101.31,6530
247,101.28,101.32,101.21,101.32,7150
248,101.24,101.31,101.21,101.29,13386
249,101.23,101.25,101.18,101.21,3511
250,101.21,101.24,101.21,101.22,1400
251,101.05,101.22,101.04,101.18,10300
252,101.03,101.163,101.03,101.05,19607
253,101.04,101.05,101.01,101.05,2645
254,101.06,101.06,101.02,101.035,2100
255,101.02,101.06,101.01,101.048,3581
256,101.05,101.08,101,101,7787
257,101.01,101.03,100.98,101.03,3800
258,101.05,101.05,101,101.03,3871
259,100.91,101.02,100.91,101.02,2500
260,100.9,100.94,100.89,100.9001,3280
261,100.8,100.89,100.8,100.89,3200
262,100.72,100.82,100.72,100.82,4550
263,100.51,100.72,100.51,100.72,15645
264,100.48,100.56,100.48,100.52,3156
265,100.47,100.51,100.47,100.49,3724
266,100.53,100.56,100.48,100.485,5450
267,100.47,100.55,100.42,100.55,3700
268,100.36,100.4475,100.36,100.42,4500
269,100.29,100.36,100.23,100.36,11205
270,100.29,100.33,100.247,100.32,2100
271,100.31,100.31,100.22,100.3,3754
272,100.29,100.36,100.27,100.32,4907
273,100.3599,100.3599,100.28,100.28,2924
274,100.37,100.37,100.35,100.35,4634
275,100.3,100.43,100.3,100.37,11846
276,100.25,100.31,100.25,100.29,3050
277,100.36,100.375,100.254,100.2671,4789
278,100.47,100.47,100.41,100.42,4200
279,100.5,100.56,100.47,100.47,4819
280,100.54,100.54,100.44,100.49,4241
281,100.535,100.55,100.51,100.525,2700
282,100.5,100.5,100.44,100.5,4900
283,100.52,100.55,100.51,100.51,4314
284,100.45,100.55,100.42,100.55,3500
285,100.37,100.48,100.37,100.47,3818
286,100.45,100.45,100.374,100.374,4950
287,100.49,100.5,100.44,100.45,5928
288,100.46,100.5,100.46,100.5,2700
289,100.47,100.48,100.41,100.47,4130
290,100.47,100.47,100.45,100.46,2918
291,100.435,100.47,100.41,100.45,19300
292,100.45,100.45,100.41,100.432,2500
293,100.39,100.43,100.37,100.43,1600
294,100.42,100.42,100.34,100.4,5700
295,100.46,100.46,100.42,100.43,6086
296,100.47,100.48,100.43,100.45,3951
297,100.455,100.49,100.45,100.49,2774
298,100.47,100.5,100.46,100.4699,12079
299,100.44,100.45,100.39,100.45,3540
300,100.45,100.45,100.41,100.43,3500
301,100.47,100.47,100.44,100.45,4112
302,100.46,100.5,100.45,100.48,4708
303,100.49,100.49,100.445,100.45,1900
304,100.43,100.49,100.43,100.46,5200
305,100.5,100.5,100.44,100.46,9701
306,100.48,100.5,100.46,100.5,8750
307,100.5,100.5,100.46,100.48,2297
308,100.48,100.49,100.46,100.49,4800
309,100.48,100.48,100.43,100.47,4735
310,100.472,100.5,100.47,100.47,6910
311,100.48,100.491,100.46,100.49,5129
312,100.5,100.5,100.47,100.5,11400
313,100.4972,100.5,100.47,100.5,7851
314,100.8,100.8,100.5,100.5,15909
315,101,101.01,100.82,100.82,5500
316,100.735,101.02,100.73,100.995,23636
317,100.615,100.73,100.5901,100.73,12452
318,100.5,100.615,100.45,100.61,15618
319,100.435,100.478,100.41,100.47,2792
320,100.32,100.44,100.32,100.435,14241
321,100.43,100.44,100.33,100.33,6600
322,100.65,100.65,100.42,100.42,11547
323,100.8,100.8,100.66,100.66,4050
324,100.83,100.88,100.77,100.8,10945
325,100.6908,100.84,100.6908,100.84,12102
326,100.67,100.74,100.64,100.66,3750
327,100.765,100.78,100.65,100.71,7793
328,100.73,100.78,100.67,100.78,6506
329,100.82,100.82,100.73,100.73,5590
330,100.78,100.83,100.765,100.805,3500
331,100.69,100.79,100.69,100.776,3364
332,100.6,100.7,100.6,100.68,6600
333,100.66,100.68,100.62,100.62,6301
334,100.67,100.7,100.63,100.66,8994
335,100.57,100.68,100.55,100.67,7500
336,100.58,100.58,100.54,100.565,4844
337,100.43,100.57,100.41,100.57,20776
338,100.3,100.42,100.3,100.42,14061
339,100.21,100.32,100.17,100.31,16572
340,100.2,100.23,100.17,100.2,9059
341,100.16,100.2,100.15,100.2,5221
342,100.19,100.19,100.11,100.16,13132
343,100.1,100.2,100.1,100.2,7991
344,100,100.12,100,100.11,7543
345,100.175,100.21,100.03,100.03,12850
346,100.01,100.185,100.01,100.173,9084
347,100.09,100.09,100,100.01,13556
348,100.105,100.105,100.01,100.08,6760
349,100.11,100.12,100.1,100.12,5450
350,100.13,100.13,100.07,100.13,4125
351,100.05,100.14,100.05,100.13,4200
352,100.08,100.09,100.05,100.08,8293
353,100.03,100.09,100.02,100.08,6540
354,100.02,100.03,100.01,100.03,4400
355,100.035,100.08,99.99,100.01,14783
356,100.16,100.1699,100.07,100.07,6500
357,100.13,100.165,100.1,100.165,4517
358,100.16,100.16,100.12,100.15,6500
359,100.22,100.22,100.1699,100.17,6800
360,100.36,100.36,100.21,100.22,10465
361,100.53,100.56,100.37,100.37,23755
362,100.5825,100.61,100.52,100.55,10400
363,100.73,100.73,100.53,100.6,18432
364,100.57,100.83,100.57,100.76,20260
365,100.55,100.574,100.46,100.574,8811
366,100.487,100.56,100.46,100.55,7500
367,100.34,100.46,100.34,100.46,7573
368,100.35,100.37,100.32,100.34,9314
369,100.33,100.34,100.3,100.34,6346
370,100.31,100.33,100.3,100.33,11226
371,100.22,100.31,100.22,100.31,6745
372,100.2275,100.26,100.145,100.23,14658
373,100.26,100.26,100.24,100.24,5875
374,100.34,100.34,100.26,100.26,11911
375,100.45,100.49,100.34,100.34,10897
376,100.36,100.47,100.35,100.46,14761
377,100.39,100.4,100.355,100.355,16032
378,100.38,100.43,100.37,100.395,11194
379,100.368,100.42,100.36,100.4,20076
380,100.395,100.4,100.37,100.37,16464
381,100.42,100.431,100.4,100.4,23097
382,100.5,100.5,100.42,100.421,24901
383,100.63,100.63,100.49,100.49,14852
384,100.67,100.6799,100.62,100.62,10356
385,100.76,100.77,100.66,100.665,30843
386,100.72,100.77,100.71,100.75,30073
387,100.77,100.8,100.715,100.74,23214
388,100.72,100.79,100.72,100.77,25745
389,100.72,100.73,100.68,100.72,39585
390,100.74,100.77,100.7,100.71,27589
a1445261460,100.005,100.38,99.86,100.03,15101
1,100.03,100.1,99.97,100.1,1900
2,100.02,100.19,100.02,100.19,500
3,99.9,99.9,99.9,99.9,500
4,99.94,99.94,99.94,99.94,100
5,99.96,100.05,99.96,100.05,1001
6,100.02,100.11,99.94,100.06,7267
7,100.05,100.1,100.05,100.09,2899
8,100.11,100.11,100.015,100.05,5993
9,99.93,100.1,99.91,100.1,3906
10,99.92,99.958,99.88,99.958,2069
11,99.71,99.93,99.71,99.92,2600
12,99.74,99.83,99.74,99.8,3722
13,99.76,99.8,99.75,99.78,5700
14,99.77,99.77,99.76,99.77,900
15,99.69,99.78,99.68,99.74,5968
16,99.6,99.72,99.6,99.71,2323
17,99.625,99.64,99.57,99.63,4481
18,99.64,99.64,99.6,99.63,1925
19,99.57,99.57,99.57,99.57,100
20,99.63,99.66,99.6,99.63,8233
21,99.6,99.64,99.59,99.63,2840
22,99.65,99.65,99.63,99.63,2500
23,99.69,99.7,99.675,99.675,2100
24,99.6,99.68,99.6,99.66,1600
25,99.63,99.63,99.6,99.6,200
26,99.51,99.64,99.51,99.64,10328
27,99.61,99.625,99.56,99.56,3700
28,99.59,99.63,99.59,99.61,3100
29,99.62,99.62,99.57,99.57,4117
30,99.695,99.695,99.595,99.6,2500
31,99.65,99.69,99.64,99.69,1399
32,99.54,99.65,99.54,99.65,9809
33,99.4925,99.54,99.43,99.54,5500
34,99.55,99.67,99.52,99.55,6766
35,99.58,99.61,99.58,99.6,1600
36,99.54,99.605,99.53,99.59,2200
37,99.505,99.56,99.505,99.56,780
38,99.505,99.53,99.48,99.5,2100
40,99.56,99.56,99.4,99.52,8397
41,99.61,99.63,99.58,99.59,1100
42,99.82,99.83,99.69,99.69,1350
43,99.89,99.9093,99.83,99.89,1600
44,99.875,99.93,99.87,99.91,2400
45,99.785,99.89,99.78,99.88,2600
46,99.86,99.86,99.78,99.78,1921
47,100.16,100.18,99.9,99.9,3880
48,100.16,100.16,100.08,100.13,1900
49,100.26,100.26,100.19,100.19,1900
50,100.3,100.3,100.26,100.26,800
51,100.17,100.29,100.13,100.27,2950
52,100.14,100.17,100.14,100.17,200
53,100.235,100.235,100.17,100.17,2900
54,100.1999,100.26,100.175,100.26,2000
55,100.1,100.18,100.08,100.13,2700
56,100.1,100.135,100.01,100.13,5216
57,100.05,100.185,100.05,100.14,2922
58,100.14,100.14,100.02,100.03,2800
59,100.12,100.19,100.095,100.14,5150
60,100.03,100.105,100.03,100.105,1100
61,100.05,100.08,99.98,99.98,1400
62,100.16,100.17,100.12,100.12,1700
63,100.18,100.185,100.1,100.18,2435
64,100.19,100.2299,100.19,100.22,1249
65,100.11,100.21,100.05,100.21,4227
66,100.27,100.27,100.14,100.14,1750
67,100.4,100.4,100.28,100.28,2150
68,100.51,100.51,100.41,100.41,900
69,100.41,100.52,100.41,100.52,1979
70,100.53,100.57,100.47,100.47,3109
71,100.51,100.56,100.51,100.54,2154
72,100.56,100.58,100.48,100.53,1723
73,100.6,100.6,100.56,100.58,800
74,100.48,100.575,100.48,100.57,1725
75,100.43,100.51,100.36,100.505,3225
76,100.33,100.43,100.33,100.43,1401
77,100.438,100.45,100.37,100.37,3932
78,100.46,100.46,100.46,100.46,200
79,100.47,100.49,100.47,100.4865,1200
80,100.4,100.51,100.39,100.48,3843
81,100.36,100.4,100.36,100.4,700
82,100.45,100.45,100.38,100.39,1400
83,100.37,100.43,100.37,100.43,1100
84,100.49,100.49,100.36,100.38,1005
85,100.42,100.55,100.42,100.49,2791
86,100.4,100.41,100.4,100.41,1300
87,100.38,100.5,100.38,100.44,2200
88,100.3014,100.49,100.3014,100.35,15777
89,100.3799,100.41,100.27,100.31,14505
90,100.32,100.38,100.27,100.38,1962
91,100.25,100.32,100.25,100.32,500
92,100.22,100.3,100.2,100.21,1500
93,100.35,100.35,100.21,100.21,1018
94,100.32,100.33,100.3,100.33,500
95,100.41,100.41,100.31,100.34,2400
96,100.43,100.46,100.35,100.39,2500
97,100.49,100.49,100.43,100.43,700
98,100.43,100.48,100.4,100.48,2150
99,100.47,100.47,100.415,100.44,521
100,100.445,100.52,100.445,100.5,800
101,100.51,100.51,100.51,100.51,200
102,100.62,100.62,100.51,100.51,900
103,100.57,100.6,100.545,100.58,1400
104,100.64,100.6499,100.5575,100.5575,874
105,100.66,100.71,100.61,100.61,5602
106,100.72,100.81,100.69,100.69,6816
107,100.77,100.77,100.72,100.72,900
108,100.8,100.83,100.73,100.77,2985
109,100.825,100.86,100.81,100.81,3700
110,100.74,100.8,100.72,100.78,1088
111,100.87,100.88,100.8,100.8,11002
112,100.89,100.9525,100.88,100.88,8969
113,100.93,100.94,100.8706,100.8706,2410
114,100.96,100.97,100.93,100.93,3115
115,100.87,100.98,100.87,100.96,1450
116,100.85,100.85,100.825,100.85,700
117,100.84,100.9,100.82,100.85,2100
118,100.775,100.86,100.775,100.83,700
119,100.74,100.794,100.715,100.794,2083
120,100.62,100.76,100.62,100.715,8162
121,100.56,100.58,100.55,100.58,3167
122,100.59,100.62,100.55,100.57,4049
123,100.57,100.64,100.57,100.63,1400
124,100.66,100.68,100.53,100.54,3306
125,100.65,100.65,100.65,100.65,100
126,100.7,100.7,100.65,100.65,941
127,100.79,100.79,100.7,100.7,2750
128,100.78,100.8,100.72,100.79,1700
129,100.76,100.8,100.73,100.78,1053
130,100.8,100.8,100.76,100.76,1000
131,100.78,100.84,100.78,100.79,1400
132,100.78,100.81,100.76,100.8,1100
133,100.76,100.77,100.75,100.75,1100
134,100.87,100.87,100.81,100.81,1800
135,100.86,100.86,100.81,100.86,2820
136,100.85,100.86,100.81,100.86,900
137,100.85,100.85,100.7858,100.81,1618
138,100.84,100.85,100.83,100.85,1100
139,100.86,100.86,100.84,100.86,701
140,100.892,100.9,100.86,100.86,624
141,100.92,100.94,100.91,100.94,800
142,100.94,100.95,100.9,100.91,1724
143,100.94,100.95,100.91,100.94,1200
144,100.9,100.96,100.9,100.94,2000
145,100.94,100.98,100.9,100.9,3660
146,100.94,100.94,100.91,100.92,800
147,100.89,100.93,100.89,100.92,1875
148,100.87,100.9,100.87,100.89,600
149,100.87,100.87,100.81,100.84,1650
150,100.89,100.89,100.87,100.89,1250
151,100.9078,100.92,100.89,100.89,3044
152,100.84,100.88,100.8,100.88,2171
153,100.84,100.85,100.83,100.85,900
154,100.8,100.825,100.79,100.81,1100
155,100.79,100.82,100.79,100.81,600
156,100.8432,100.85,100.79,100.79,940
157,100.83,100.85,100.83,100.85,974
158,100.81,100.81,100.81,100.81,200
159,100.8,100.8,100.78,100.795,3682
160,100.84,100.84,100.81,100.81,1300
161,100.8,100.84,100.79,100.84,400
162,100.86,100.86,100.81,100.82,1200
163,100.77,100.86,100.77,100.86,900
164,100.76,100.76,100.76,100.76,100
165,100.86,100.86,100.79,100.79,800
166,100.83,100.88,100.83,100.8796,1300
167,100.83,100.83,100.79,100.83,1565
168,100.835,100.85,100.815,100.84,1736
169,100.82,100.88,100.82,100.8401,2288
170,100.795,100.8,100.79,100.79,1000
171,100.8664,100.8664,100.8664,100.8664,280
172,100.82,100.86,100.8,100.86,2340
173,100.77,100.78,100.77,100.78,600
174,100.79,100.79,100.735,100.76,650
175,100.78,100.78,100.72,100.76,1680
176,100.7,100.76,100.69,100.75,1400
177,100.72,100.72,100.695,100.695,600
178,100.78,100.78,100.73,100.73,1946
179,100.8,100.8,100.8,100.8,500
180,100.82,100.84,100.82,100.82,1000
181,100.81,100.83,100.8,100.83,1890
182,100.83,100.83,100.75,100.78,1900
183,100.87,100.87,100.8,100.83,700
184,100.87,100.9,100.87,100.88,1000
185,100.84,100.885,100.83,100.87,1080
186,100.81,100.82,100.8,100.82,400
187,100.825,100.84,100.81,100.81,1200
188,100.81,100.83,100.81,100.82,800
189,100.82,100.82,100.79,100.81,1400
190,100.84,100.85,100.8,100.82,1200
191,100.82,100.87,100.81,100.81,1626
192,100.85,100.88,100.81,100.81,1500
193,100.85,100.87,100.82,100.82,2200
194,100.79,100.85,100.79,100.85,2826
195,100.85,100.85,100.81,100.81,1600
196,100.84,100.85,100.825,100.85,1494
197,100.87,100.87,100.82,100.84,1700
198,100.85,100.88,100.84,100.87,1300
199,100.89,100.89,100.85,100.86,1438
200,100.87,100.885,100.84,100.87,1200
201,100.87,100.87,100.87,100.87,600
202,100.872,100.872,100.82,100.82,1411
203,100.885,100.91,100.86,100.86,1900
204,100.85,100.87,100.85,100.87,324
205,100.87,100.87,100.87,100.87,400
206,100.88,100.88,100.85,100.85,800
207,100.95,100.95,100.89,100.89,1000
208,100.9166,100.99,100.9166,100.93,2300
209,100.94,100.96,100.93,100.95,979
210,101.01,101.05,100.95,100.95,10033
211,101.02,101.03,101.02,101.03,300
212,101.03,101.03,101.02,101.02,300
213,101.03,101.04,101.01,101.04,1200
214,101.01,101.05,101.01,101.03,1190
215,100.96,101,100.95,101,1400
216,100.97,101.01,100.95,100.95,1300
217,100.96,100.98,100.95,100.97,3560
218,100.96,100.97,100.95,100.96,949
219,100.96,100.97,100.95,100.96,1360
220,101.01,101.01,100.96,100.96,1000
221,101.01,101.02,101,101.01,1600
223,101,101.03,101,101.03,700
224,100.96,100.96,100.95,100.96,2848
225,100.97,101,100.95,101,2578
226,100.95,100.99,100.95,100.95,2500
227,100.95,100.96,100.94,100.95,3921
228,100.98,101.02,100.97,100.97,2689
229,100.94,101.01,100.94,100.98,3608
230,101.02,101.05,100.94,100.94,2100
231,100.96,101.0001,100.96,101,500
232,100.93,100.97,100.93,100.93,1100
233,100.94,100.94,100.9,100.93,1000
234,101,101,101,101,500
235,101.02,101.03,101,101.03,1712
236,100.97,101.02,100.97,101.02,500
237,101.01,101.01,100.99,100.99,486
238,100.93,101.03,100.92,101.01,900
239,100.94,100.97,100.9,100.9,800
240,100.91,100.94,100.91,100.93,500
241,100.85,100.86,100.82,100.86,900
242,100.84,100.85,100.84,100.84,800
243,100.84,100.92,100.796,100.87,1800
244,100.83,100.85,100.83,100.85,800
245,100.776,100.8,100.74,100.8,825
246,100.79,100.8,100.76,100.76,900
247,100.8,100.8,100.8,100.8,600
249,100.87,100.87,100.8,100.83,1300
250,100.89,100.91,100.86,100.86,900
251,100.8852,100.91,100.88,100.9,2387
252,100.92,100.93,100.89,100.89,1262
253,100.93,100.94,100.91,100.91,2345
254,100.91,100.93,100.91,100.92,1400
255,100.97,100.97,100.87,100.88,1700
256,100.98,100.99,100.93,100.97,1917
257,101.04,101.05,100.99,101.01,2775
258,101,101.04,101,101.04,400
259,100.98,101.02,100.96,101.02,1515
260,100.98,101.01,100.96,100.98,1100
261,101.025,101.03,101,101,901
262,101.01,101.05,101.01,101.02,900
263,101.04,101.06,101.01,101.01,3137
264,101.04,101.06,101.03,101.06,700
265,101.02,101.04,100.98,101.04,2600
266,101.02,101.02,101.01,101.02,900
267,101.01,101.03,100.96,101.02,3375
268,100.98,101.01,100.98,101,900
269,100.99,100.99,100.96,100.98,1000
270,101.005,101.02,100.98,100.9971,2667
271,100.95,100.97,100.94,100.97,600
272,100.83,100.93,100.83,100.93,1240
273,100.87,100.87,100.81,100.81,2000
274,100.9,100.91,100.86,100.86,1303
275,100.8655,100.9,100.856,100.88,1011
276,100.87,100.91,100.87,100.875,2402
277,100.8,100.882,100.8,100.87,1200
278,100.81,100.86,100.81,100.84,1657
279,100.84,100.84,100.81,100.81,400
280,100.84,100.89,100.84,100.8899,930
281,100.79,100.82,100.79,100.82,700
282,100.8,100.8,100.76,100.78,1693
283,100.89,100.89,100.81,100.81,2758
284,100.93,100.93,100.88,100.89,1800
285,100.91,100.97,100.91,100.96,1400
286,100.87,100.905,100.87,100.905,600
287,100.83,100.83,100.8201,100.8201,250
288,100.92,100.92,100.85,100.85,2204
289,100.9,100.95,100.9,100.94,1940
290,100.9,100.92,100.87,100.87,900
291,100.87,100.9,100.87,100.9,764
292,100.79,100.86,100.79,100.855,1800
293,100.81,100.81,100.8,100.8047,2600
294,100.83,100.85,100.83,100.84,600
295,100.85,100.86,100.84,100.84,400
296,100.9,100.9,100.87,100.88,1521
297,100.83,100.9,100.83,100.9,1100
298,100.89,100.89,100.84,100.8599,1478
299,100.9,100.9,100.89,100.89,1100
300,100.92,100.9233,100.89,100.89,2814
301,100.9299,100.9299,100.91,100.927,1119
302,100.87,100.91,100.87,100.89,1500
303,100.9,100.9,100.87,100.87,860
304,100.94,100.94,100.91,100.91,1565
305,100.94,100.96,100.91,100.95,3400
306,100.96,100.97,100.95,100.95,1600
307,101.03,101.04,100.95,100.98,2144
308,100.988,101.01,100.972,101.01,1341
309,100.9,101.0012,100.9,101,2350
310,100.95,100.95,100.902,100.902,800
311,100.94,100.99,100.94,100.95,2900
312,100.95,100.95,100.95,100.95,500
313,100.96,100.97,100.92,100.96,2605
314,100.98,100.99,100.94,100.97,2209
315,100.92,100.98,100.92,100.98,800
316,100.96,100.975,100.92,100.92,2100
317,100.89,100.94,100.89,100.94,900
318,100.93,100.94,100.87,100.87,1600
319,100.85,100.8755,100.85,100.8755,742
320,100.84,100.84,100.81,100.82,1071
321,100.88,100.8963,100.84,100.84,1965
322,100.92,100.92,100.9,100.9,1733
323,100.93,100.93,100.92,100.93,1200
324,100.95,100.975,100.94,100.94,3595
325,100.87,100.95,100.87,100.93,1550
326,100.908,100.908,100.88,100.88,1505
327,100.9,100.91,100.9,100.9,500
328,100.97,100.97,100.88,100.9,3130
329,100.95,100.97,100.95,100.97,2709
330,100.94,100.96,100.94,100.95,1600
331,100.94,100.96,100.9,100.93,2702
332,100.98,100.99,100.97,100.97,1100
333,100.96,101,100.96,100.99,1700
334,100.98,101,100.96,100.96,2500
335,100.91,100.96,100.9,100.95,2955
336,100.94,100.94,100.92,100.92,3112
337,100.89,100.94,100.87,100.94,1200
338,100.89,100.91,100.87,100.91,2550
339,100.91,100.915,100.87,100.89,2700
340,100.92,100.92,100.91,100.91,804
341,101.0036,101.0036,100.91,100.94,4132
342,100.96,101.005,100.96,101,2600
343,100.99,100.99,100.95,100.98,1600
344,101,101.025,101,101.02,3300
345,100.97,101.01,100.95,100.99,1484
346,100.99,100.99,100.96,100.97,1702
347,100.98,100.99,100.935,100.99,2826
348,101.04,101.07,101,101,5593
349,101.01,101.049,101.01,101.049,1150
350,101.08,101.08,101.03,101.03,3300
351,101.08,101.1,101.06,101.09,5338
352,101.01,101.08,101.01,101.08,2178
353,101.07,101.07,101.02,101.02,5153
354,101.02,101.08,101.02,101.08,4900
355,101.05,101.05,100.99,101.01,14069
356,101.1,101.1,101.01,101.04,2607
357,101.035,101.11,101.03,101.11,3822
358,100.97,101.07,100.96,101.03,2400
359,100.99,101.005,100.96,100.98,9330
360,100.99,101.05,100.99,100.99,5842
361,101.02,101.05,100.99,100.99,4547
362,100.96,101.01,100.96,101.01,10198
363,101.025,101.025,100.96,100.96,2800
364,100.91,101.025,100.91,101.02,10348
365,100.95,100.95,100.91,100.92,4952
366,100.88,100.93,100.85,100.93,3300
367,100.87,100.9,100.84,100.88,8835
368,100.86,100.89,100.86,100.88,3426
369,100.88,100.9,100.86,100.86,3000
370,100.87,100.9,100.86,100.89,6023
371,100.92,100.92,100.87,100.87,3434
372,100.915,100.94,100.91,100.92,4707
373,100.955,100.99,100.92,100.92,9449
374,100.935,100.97,100.93,100.94,3168
375,100.99,101,100.93,100.94,8801
376,101.09,101.09,101,101,6638
377,101.03,101.11,101.03,101.09,5916
378,101.07,101.09,101.02,101.02,6759
379,101,101.07,101,101.07,3356
380,100.99,101.03,100.97,101.01,7764
381,101.02,101.03,101,101.01,6226
382,101.055,101.06,101.01,101.01,7836
383,101.1,101.1,101.06,101.06,6416
384,101.13,101.17,101.11,101.11,17177
385,101.12,101.14,101.05,101.13,10817
386,101.18,101.19,101.12,101.13,8928
387,101.2,101.21,101.18,101.18,12405
388,101.22,101.23,101.17,101.2,18810
389,101.27,101.28,101.2,101.22,22652
a1445347800,100.76,101.17,100.76,101.17,11097
1,101.09,101.11,101.09,101.11,200
2,100.83,101.16,100.83,101.09,779
3,101.47,101.47,101.1,101.14,1834
5,101.47,101.47,101.47,101.47,100
6,101.25,101.25,101.25,101.25,200
7,100.91,101.345,100.89,101.27,3878
8,100.895,100.91,100.895,100.91,200
9,100.89,100.89,100.76,100.86,1696
10,100.87,100.89,100.87,100.89,400
11,101.08,101.08,100.95,100.97,803
12,101.17,101.27,101.17,101.18,1955
13,101.28,101.28,101.27,101.27,200
14,101.3,101.3,101.29,101.3,300
15,101.32,101.32,101.32,101.32,100
16,101.5,101.5,101.43,101.43,2700
17,101.51,101.61,101.5,101.5,3890
18,101.55,101.65,101.55,101.65,2000
19,101.71,101.71,101.57,101.57,1100
20,101.85,101.85,101.71,101.71,900
21,101.79,101.86,101.73,101.84,5300
22,102.09,102.09,101.8,101.8,5576
23,102.038,102.22,102.02,102.09,3100
24,101.828,102.03,101.828,102.03,1100
25,102,102,101.9,101.9,3700
26,102,102.09,101.97,102.09,4851
27,102,102,102,102,500
28,101.93,102.08,101.71,102.01,7000
29,102.11,102.11,101.96,101.99,3219
30,102.14,102.14,101.94,101.94,5060
31,102.06,102.11,102.04,102.08,1500
32,102.02,102.16,101.99,102.08,4901
33,102.05,102.09,102.02,102.02,1000
34,102.16,102.17,102.05,102.08,7375
35,102.21,102.26,102.15,102.18,2900
36,102.2,102.2525,102.2,102.235,3500
37,102.26,102.26,102.18,102.18,3100
38,102.3599,102.3599,102.26,102.26,2446
39,102.3,102.39,102.3,102.37,1600
40,102.35,102.4,102.3,102.3,2700
41,102.32,102.385,102.32,102.36,1400
42,102.34,102.35,102.32,102.32,1300
43,102.29,102.29,102.29,102.29,900
44,102.24,102.29,102.23,102.29,1461
45,102.14,102.14,102.14,102.14,200
46,102.12,102.21,102.12,102.14,2090
47,101.95,102.12,101.95,102.12,1514
48,101.98,102,101.93,101.95,4500
49,101.99,102.04,101.99,102,902
50,102.02,102.02,102.02,102.02,1601
51,102.01,102.05,101.99,102.04,4400
52,102,102.02,102,102.01,300
53,101.95,102.02,101.95,102.01,1629
54,101.76,101.94,101.73,101.93,9300
55,101.81,101.86,101.71,101.71,9300
56,101.87,101.87,101.7,101.82,15686
57,101.82,101.86,101.82,101.86,1000
58,101.82,101.84,101.81,101.81,1000
59,101.84,101.86,101.81,101.83,937
60,101.825,101.85,101.76,101.84,12527
61,101.84,101.86,101.8,101.8,1500
62,101.85,101.85,101.78,101.81,2031
63,101.85,101.89,101.84,101.87,2200
64,101.7601,101.8,101.7601,101.8,211
65,101.856,101.87,101.81,101.82,1500
66,101.79,101.83,101.79,101.83,1700
67,101.78,101.81,101.77,101.79,2301
68,101.8,101.81,101.78,101.795,2700
69,101.815,101.83,101.8,101.8,1319
70,101.9,101.9,101.88,101.88,300
71,101.91,101.92,101.87,101.9,1500
72,102,102.02,101.9,101.92,6193
73,102.11,102.11,102.04,102.04,1782
74,102.15,102.15,102.11,102.11,1878
75,102.14,102.15,102.04,102.09,2300
76,102.09,102.15,102.09,102.13,1400
77,102.105,102.13,102.09,102.13,500
78,102.03,102.12,102.01,102.11,2700
79,102.05,102.05,102.03,102.03,1200
80,102.08,102.0972,102.04,102.06,2126
81,102.12,102.13,102.06,102.08,1600
82,102.06,102.11,102.06,102.11,6299
83,102,102.03,102,102.03,1200
84,102,102,102,102,500
85,101.9404,101.97,101.91,101.97,900
86,101.921,101.921,101.827,101.89,1540
87,101.91,101.92,101.89,101.92,800
88,101.93,101.94,101.91,101.91,900
89,101.93,101.93,101.93,101.93,200
90,101.79,101.93,101.79,101.92,2500
91,101.73,101.81,101.73,101.81,900
92,101.75,101.75,101.71,101.71,3348
93,101.76,101.79,101.748,101.77,1200
94,101.76,101.83,101.76,101.76,1306
95,101.73,101.74,101.7,101.71,1900
96,101.715,101.74,101.7,101.74,2578
97,101.72,101.73,101.7,101.71,700
98,101.74,101.78,101.74,101.75,2200
99,101.6971,101.7,101.6971,101.7,800
100,101.71,101.73,101.7,101.73,1200
101,101.7,101.71,101.695,101.7,2035
102,101.64,101.7,101.55,101.7,2722
103,101.72,101.725,101.605,101.67,7600
104,101.79,101.79,101.68,101.7,2850
105,101.79,101.84,101.77,101.79,2402
106,101.77,101.77,101.71,101.722,900
107,101.8,101.83,101.8,101.8,1100
108,101.7,101.8,101.69,101.8,1500
109,101.85,101.85,101.69,101.72,5806
110,101.77,101.84,101.77,101.84,1300
111,101.76,101.76,101.7,101.75,5371
112,101.73,101.77,101.72,101.76,4300
113,101.79,101.8,101.73,101.745,5900
114,101.9,101.9,101.8,101.8,2200
115,101.85,101.88,101.85,101.86,700
116,101.95,101.95,101.87,101.87,4100
117,101.9,101.915,101.9,101.9,1100
118,101.85,101.88,101.85,101.88,400
119,101.81,101.86,101.79,101.84,1400
120,101.9,101.9,101.83,101.85,6898
121,101.79,101.9,101.79,101.89,4323
122,101.734,101.77,101.734,101.76,510
123,101.75,101.77,101.7345,101.7345,4630
124,101.67,101.745,101.67,101.745,8500
125,101.63,101.64,101.55,101.64,5475
126,101.65,101.66,101.64,101.65,5081
127,101.68,101.68,101.6,101.64,2401
128,101.77,101.79,101.68,101.695,4000
129,101.85,101.85,101.76,101.76,1400
130,101.81,101.83,101.79,101.83,4444
131,101.81,101.84,101.8,101.82,1200
132,101.82,101.82,101.76,101.76,449
133,101.85,101.87,101.835,101.85,1100
134,101.84,101.84,101.7901,101.82,1200
135,101.855,101.86,101.82,101.84,2218
136,101.756,101.84,101.756,101.84,1400
137,101.86,101.86,101.79,101.79,1601
138,101.82,101.9,101.82,101.87,700
139,101.8,101.85,101.8,101.84,800
140,101.745,101.8084,101.74,101.8084,642
141,101.83,101.84,101.71,101.73,3536
142,101.75,101.84,101.75,101.83,1100
143,101.76,101.76,101.76,101.76,100
144,101.7,101.8,101.7,101.78,1995
145,101.66,101.73,101.65,101.73,2208
146,101.54,101.62,101.54,101.62,800
147,101.5101,101.54,101.5,101.54,5900
148,101.5,101.5101,101.47,101.5101,1300
149,101.5901,101.6,101.505,101.53,3549
150,101.58,101.675,101.58,101.602,2345
151,101.575,101.59,101.5437,101.5437,2117
152,101.62,101.65,101.6,101.6,1600
153,101.48,101.6,101.48,101.6,1600
154,101.48,101.52,101.48,101.52,600
155,101.49,101.51,101.42,101.42,2501
156,101.58,101.58,101.49,101.49,1500
157,101.56,101.58,101.56,101.58,700
158,101.65,101.65,101.59,101.59,800
159,101.7,101.7,101.585,101.6,1600
160,101.7,101.7,101.67,101.7,500
161,101.66,101.76,101.623,101.76,3930
162,101.62,101.67,101.62,101.67,1200
163,101.52,101.65,101.51,101.62,5664
164,101.6,101.68,101.53,101.54,17712
165,101.56,101.61,101.56,101.6,1000
166,101.59,101.62,101.585,101.6099,700
167,101.57,101.59,101.53,101.59,2353
168,101.55,101.57,101.54,101.57,800
169,101.5,101.58,101.46,101.58,3347
170,101.49,101.54,101.49,101.54,900
171,101.48,101.5,101.46,101.46,2200
172,101.43,101.53,101.43,101.48,2000
173,101.45,101.46,101.37,101.39,10252
174,101.44,101.4475,101.43,101.4475,1300
175,101.42,101.44,101.42,101.435,500
176,101.43,101.43,101.38,101.41,1696
177,101.475,101.475,101.36,101.43,1300
178,101.49,101.51,101.48,101.5,1001
179,101.475,101.52,101.475,101.49,400
180,101.5,101.5,101.5,101.5,200
181,101.48,101.54,101.48,101.52,600
182,101.43,101.47,101.42,101.47,1335
183,101.42,101.42,101.42,101.42,200
184,101.34,101.34,101.34,101.34,100
185,101.31,101.37,101.31,101.37,800
186,101.32,101.33,101.31,101.31,1000
187,101.25,101.31,101.25,101.31,2650
188,101.19,101.22,101.13,101.2,1704
189,101.13,101.21,101.1,101.19,3862
190,101.11,101.11,101.07,101.07,543
191,101.08,101.12,101.08,101.12,1100
192,101.14,101.14,101.02,101.05,1824
193,101.15,101.15,101.15,101.15,200
194,101.2,101.22,101.16,101.16,500
195,101.19,101.19,101.18,101.18,800
196,101.15,101.18,101.15,101.16,1200
197,101.19,101.19,101.1,101.13,1900
198,101.1,101.16,101.1,101.16,1373
199,101.1,101.12,101.08,101.12,700
200,101.055,101.08,101.05,101.06,400
201,101.09,101.11,101.0598,101.0598,2350
202,101.02,101.1,101.01,101.1,2907
203,101.03,101.07,101.02,101.03,600
204,101.08,101.08,101.01,101.03,2200
205,101.05,101.09,101.05,101.06,800
206,101.14,101.14,101.08,101.08,900
207,101.18,101.18,101.13,101.17,1000
208,101.26,101.26,101.19,101.19,900
209,101.31,101.31,101.26,101.26,1854
210,101.29,101.32,101.29,101.31,1600
211,101.27,101.32,101.27,101.31,600
213,101.27,101.27,101.27,101.27,500
214,101.24,101.27,101.24,101.27,451
215,101.2,101.2,101.2,101.2,300
216,101.24,101.26,101.19,101.22,2900
217,101.17,101.21,101.15,101.21,900
218,101.19,101.21,101.15,101.17,1300
219,101.15,101.15,101.15,101.15,200
220,101.15,101.19,101.15,101.17,1001
221,101.2,101.2,101.13,101.13,600
222,101.21,101.23,101.21,101.22,1000
223,101.22,101.25,101.21,101.24,1300
224,101.18,101.22,101.18,101.22,1300
225,101.21,101.22,101.2,101.2,950
226,101.27,101.275,101.23,101.23,1368
227,101.29,101.3,101.27,101.27,923
228,101.25,101.31,101.25,101.31,740
229,101.24,101.28,101.24,101.28,600
230,101.18,101.25,101.17,101.24,1800
231,101.16,101.19,101.16,101.19,600
232,101.19,101.21,101.14,101.189,1450
233,101.18,101.19,101.16,101.19,400
234,101.15,101.215,101.14,101.19,1600
235,101.13,101.1595,101.13,101.1595,304
236,101.13,101.13,101.07,101.11,1800
237,101.02,101.13,101.02,101.13,1607
238,101.04,101.05,101.03,101.04,2003
239,101.03,101.05,101.03,101.046,602
240,101.03,101.05,100.95,101.05,7775
241,100.94,101.01,100.94,101.01,900
242,100.91,100.93,100.91,100.93,500
243,100.92,100.92,100.885,100.885,787
244,100.965,100.99,100.89,100.94,1440
245,100.96,100.96,100.96,100.96,200
246,100.96,100.97,100.955,100.96,800
247,100.85,100.94,100.79,100.93,9300
248,100.76,100.85,100.76,100.85,7800
249,100.8,100.82,100.77,100.77,3200
250,100.795,100.82,100.79,100.82,2200
251,100.75,100.82,100.75,100.82,4180
252,100.82,100.82,100.77,100.78,6612
253,100.8304,100.8304,100.8304,100.8304,170
254,100.85,100.85,100.83,100.84,1900
255,100.85,100.85,100.8,100.83,1212
256,100.85,100.86,100.8301,100.86,2256
257,100.82,100.85,100.81,100.85,3800
258,100.82,100.82,100.78,100.815,1400
259,100.88,100.88,100.81,100.81,1950
260,100.95,100.95,100.88,100.88,1200
261,100.93,100.957,100.93,100.95,3446
262,101.01,101.01,100.96,100.96,3000
263,101.03,101.03,100.99,101,3000
264,101.11,101.11,101.03,101.03,2070
265,101.08,101.11,101.07,101.11,1500
266,101.1482,101.1482,101.08,101.08,5844
267,101.13,101.16,101.11,101.14,700
268,101.13,101.142,101.13,101.13,800
269,101.09,101.13,101.09,101.13,1000
270,101.12,101.14,101.07,101.07,1600
271,101.12,101.12,101.1,101.1,400
272,101.11,101.1309,101.08,101.12,2500
273,101.18,101.18,101.13,101.13,700
274,101.16,101.2,101.16,101.19,1750
275,101.18,101.18,101.15,101.15,700
276,101.14,101.16,101.128,101.16,1612
277,101.11,101.16,101.11,101.15,1400
278,101.16,101.16,101.12,101.13,2000
279,101.09,101.15,101.09,101.14,1300
280,101,101.09,101,101.09,1042
281,101.06,101.06,101,101,1622
282,101.06,101.09,101.04,101.09,901
283,101.09,101.09,101.04,101.04,1800
284,101.12,101.12,101.09,101.09,200
285,101.11,101.11,101.11,101.11,100
286,101.13,101.13,101.12,101.12,1199
287,101.12,101.13,101.1,101.11,1000
288,101.13,101.13,101.1,101.11,400
289,101.16,101.16,101.11,101.13,3358
291,101.07,101.16,101.07,101.16,800
292,101.11,101.11,101.08,101.08,600
293,101.13,101.16,101.11,101.11,1400
294,101.12,101.2,101.12,101.13,1850
295,101.19,101.19,101.13,101.13,500
296,101.18,101.22,101.18,101.22,1500
297,101.17,101.2,101.17,101.19,1001
298,101.22,101.22,101.18,101.19,1301
299,101.27,101.28,101.23,101.23,1000
300,101.28,101.28,101.27,101.27,900
301,101.25,101.29,101.25,101.29,1300
302,101.21,101.24,101.21,101.21,1000
303,101.25,101.25,101.2,101.2,2900
304,101.29,101.3,101.26,101.26,1800
305,101.33,101.33,101.28,101.29,1142
306,101.33,101.34,101.33,101.33,1100
307,101.34,101.34,101.32,101.33,1100
308,101.33,101.34,101.31,101.33,1700
309,101.32,101.33,101.32,101.33,300
310,101.34,101.35,101.32,101.32,1000
311,101.39,101.435,101.36,101.36,4186
312,101.38,101.41,101.38,101.41,600
313,101.31,101.39,101.31,101.39,1200
314,101.35,101.36,101.32,101.32,2402
315,101.39,101.4,101.36,101.36,1544
316,101.41,101.41,101.39,101.39,1601
317,101.47,101.5,101.35,101.42,4273
318,101.42,101.467,101.41,101.45,2000
319,101.43,101.43,101.42,101.43,1500
320,101.41,101.43,101.41,101.43,2700
321,101.43,101.43,101.41,101.41,2400
322,101.42,101.438,101.41,101.438,2500
323,101.52,101.52,101.42,101.42,2595
324,101.48,101.53,101.48,101.52,3200
325,101.5,101.5,101.45,101.48,2201
326,101.56,101.58,101.53,101.53,3600
327,101.53,101.55,101.52,101.55,2170
328,101.56,101.56,101.53,101.53,2380
329,101.59,101.64,101.57,101.57,4700
330,101.59,101.59,101.55,101.59,2333
331,101.54,101.66,101.54,101.61,2319
332,101.56,101.57,101.54,101.55,3369
333,101.57,101.57,101.53,101.56,2500
334,101.54,101.57,101.53,101.56,4116
335,101.54,101.56,101.53,101.54,4500
336,101.51,101.52,101.49,101.52,2692
337,101.5,101.52,101.48,101.52,2672
338,101.51,101.52,101.5,101.5,2600
339,101.54,101.54,101.5,101.5,3035
340,101.5,101.54,101.5,101.54,2301
341,101.53,101.54,101.485,101.49,4163
342,101.56,101.56,101.525,101.525,4250
343,101.55,101.55,101.52,101.535,4100
344,101.51,101.55,101.48,101.55,2298
345,101.47,101.5394,101.47,101.525,3512
346,101.47,101.476,101.44,101.47,3768
347,101.43,101.47,101.43,101.47,3632
348,101.38,101.425,101.37,101.42,3300
349,101.37,101.41,101.3,101.39,7922
350,101.31,101.33,101.28,101.32,3830
351,101.36,101.37,101.31,101.32,4854
352,101.37,101.37,101.34,101.36,7194
353,101.36,101.37,101.34,101.36,3068
354,101.37,101.37,101.33,101.36,6302
355,101.3636,101.37,101.36,101.37,2436
356,101.35,101.37,101.35,101.37,4451
357,101.44,101.44,101.37,101.37,3055
358,101.45,101.46,101.43,101.43,3993
359,101.42,101.47,101.42,101.45,4705
360,101.45,101.45,101.42,101.42,2809
361,101.46,101.46,101.43,101.46,5504
362,101.43,101.46,101.42,101.46,3298
363,101.41,101.45,101.41,101.44,2200
364,101.37,101.4,101.37,101.4,2700
365,101.41,101.42,101.385,101.39,5951
366,101.45,101.45,101.4,101.4,6062
367,101.5,101.53,101.425,101.43,8335
368,101.56,101.56,101.5,101.5,4151
369,101.51,101.54,101.49,101.54,3664
370,101.55,101.55,101.51,101.51,2259
371,101.46,101.55,101.43,101.55,4558
372,101.45,101.48,101.45,101.45,5000
373,101.57,101.57,101.48,101.48,7268
374,101.61,101.64,101.52,101.54,7839
375,101.52,101.62,101.52,101.61,5405
376,101.49,101.52,101.47,101.52,9172
377,101.577,101.58,101.48,101.49,7541
378,101.46,101.56,101.45,101.56,7839
379,101.52,101.52,101.46,101.46,5049
380,101.53,101.53,101.48,101.51,7814
381,101.43,101.51,101.42,101.51,6582
382,101.43,101.47,101.43,101.46,5280
383,101.43,101.43,101.4,101.42,6405
384,101.52,101.53,101.43,101.43,13304
385,101.48,101.54,101.48,101.53,10516
386,101.49,101.5,101.45,101.48,20676
387,101.48,101.52,101.475,101.48,9015
388,101.44,101.49,101.41,101.49,13470
389,101.39,101.44,101.35,101.44,20074
390,101.38,101.43,101.31,101.41,17201
a1445434200,101.43,101.76,101.24,101.72,14039
1,101.58,101.73,101.58,101.73,513
3,101.775,101.85,101.66,101.69,4254
4,101.715,101.82,101.715,101.82,2915
5,101.395,101.61,101.395,101.61,825
6,101.37,101.479,101.37,101.45,1785
7,101.39,101.39,101.285,101.35,1050
8,101.4,101.43,101.31,101.41,2650
9,101.27,101.4,101.27,101.4,700
10,101.38,101.39,101.38,101.39,500
11,101.21,101.28,101.21,101.28,400
12,101.24,101.24,101.16,101.16,1727
13,101.32,101.32,101.2,101.2,4877
14,101.35,101.35,101.275,101.33,1000
15,101.35,101.35,101.29,101.3,400
16,101.25,101.28,101.25,101.25,500
17,101.2,101.2,101.2,101.2,100
18,101.28,101.28,101.2,101.2,1700
19,101.38,101.38,101.31,101.31,950
20,101.27,101.365,101.27,101.33,1450
21,101.19,101.26,101.16,101.26,800
22,101.18,101.18,101.075,101.15,17451
23,101.17,101.2,101.13,101.15,6357
24,101.18,101.21,101.18,101.19,500
25,101.15,101.242,101.07,101.22,9594
26,101.175,101.205,101.14,101.19,1000
27,101.07,101.13,101.04,101.13,3400
28,100.99,101.1,100.96,101.1,1960
29,101.01,101.01,100.97,100.99,500
30,101.01,101.06,101,101.01,1700
31,100.85,100.98,100.85,100.98,600
32,100.89,100.9,100.83,100.83,5800
33,100.84,100.94,100.84,100.9,5037
34,100.97,100.99,100.87,100.87,1687
35,101.05,101.05,100.95,100.95,1900
36,100.974,101.05,100.94,101.05,3050
37,100.94,101.01,100.89,100.98,10489
38,100.93,101,100.89,100.94,3574
39,100.995,101.02,100.95,100.95,1800
40,100.94,100.99,100.94,100.98,6559
41,100.91,100.93,100.91,100.93,1300
