a1444656660,87.5,88,87.12,87.12,42928
1,87.23,87.5,87.01,87.416,8067
2,87.37,87.37,87.17,87.23,2865
3,87.02,87.37,87,87.37,8873
4,86.85,87.14,86.85,87.05,5187
5,86.94,86.94,86.66,86.84,26845
6,87.18,87.2499,86.9,86.9,6908
7,86.93,87.118,86.9,87.118,3519
8,86.83,87.219,86.83,86.84,8700
9,86.87,86.97,86.68,86.81,24779
10,86.63,86.85,86.63,86.845,33511
11,86.7799,86.78,86.5903,86.5903,4814
12,86.67,86.89,86.65,86.8,10229
13,86.6006,86.71,86.52,86.62,7379
14,86.41,86.7,86.41,86.66,7449
15,86.5,86.62,86.41,86.41,3864
16,86.426,86.5,86.3,86.4932,7875
17,86.36,86.46,86.31,86.38,5060
18,86.54,86.55,86.39,86.39,9711
19,86.54,86.58,86.37,86.49,17710
20,86.38,86.514,86.35,86.5,7593
21,86.44,86.46,86.3,86.4,15710
22,86.32,86.47,86.19,86.44,18333
23,86.27,86.45,86.18,86.36,15678
24,86.31,86.46,86.22,86.23,37316
25,86.22,86.355,86.1,86.28,35127
26,86.215,86.33,86.19,86.23,33108
27,86.21,86.39,86.19,86.225,17320
28,86.19,86.26,86.11,86.23,6151
29,85.87,86.13,85.86,86.13,25830
30,86.06,86.06,85.85,85.87,10353
31,85.89,86.11,85.82,86.1,9151
32,85.95,86.01,85.86,85.9003,25178
33,86.11,86.12,85.89,85.8912,8693
34,86.21,86.28,86.06,86.06,13320
35,86.191,86.282,86.155,86.25,6300
36,86.213,86.23,86.16,86.19,6290
37,86.27,86.27,86.11,86.11,18600
38,86.26,86.26,86.18,86.22,5083
39,86.1,86.25,86.1,86.25,15272
40,86.135,86.25,86.1,86.1,31131
41,86.3,86.3472,86.13,86.13,17700
42,86.25,86.39,86.2,86.34,6552
43,86.2075,86.29,86.2,86.28,8501
44,86.21,86.31,86.19,86.25,7250
45,86.14,86.21,86.1,86.21,14798
46,86.12,86.16,86.1008,86.14,3658
47,86.17,86.235,86.1,86.11,7873
48,86.14,86.2241,86.1,86.2241,13009
49,86.1,86.17,86.1,86.15,14040
50,85.95,86.11,85.89,86.1,16783
51,86.02,86.02,85.93,85.94,5700
52,85.961,86.05,85.96,86.05,5080
53,85.77,85.96,85.77,85.955,4933
54,85.88,85.9,85.75,85.75,11452
55,85.64,85.865,85.64,85.865,17340
56,85.64,85.8099,85.58,85.67,24696
57,85.72,85.73,85.61,85.64,6343
58,85.95,85.95,85.69,85.69,19750
59,85.83,85.92,85.82,85.92,3862
60,85.85,85.86,85.76,85.8,11550
61,85.84,85.93,85.84,85.86,7750
62,85.92,85.93,85.82,85.83,7686
63,85.99,86.01,85.86,85.91,15710
64,86.07,86.1,85.99,85.99,18403
65,86.09,86.135,86.05,86.075,8109
66,86.12,86.13,85.99,86.09,19916
67,86.1,86.19,86.03,86.14,18997
68,85.95,86.09,85.88,86.09,28081
69,85.85,85.95,85.85,85.95,5011
70,85.78,85.84,85.73,85.84,11100
71,85.79,85.79,85.71,85.73,6355
72,85.83,85.83,85.75,85.78,4000
73,85.9299,85.9299,85.75,85.84,23410
74,85.87,85.92,85.8553,85.91,7600
75,85.811,85.85,85.81,85.85,5430
76,85.81,85.83,85.79,85.81,3676
77,85.6,85.82,85.6,85.795,6060
78,85.58,85.63,85.58,85.63,7089
79,85.706,85.765,85.57,85.57,5633
80,85.9,85.92,85.78,85.78,5080
81,85.9,85.94,85.83,85.91,4261
82,85.77,85.92,85.77,85.886,4410
83,85.75,85.79,85.7,85.7678,9845
84,85.725,85.75,85.62,85.75,5705
85,85.82,85.82,85.65,85.69,32079
86,85.84,85.84,85.7,85.78,14544
87,85.74,85.79,85.74,85.79,7675
88,85.57,85.78,85.57,85.78,4633
89,85.58,85.6,85.51,85.56,3611
90,85.72,85.72,85.59,85.6,14968
91,85.88,85.9,85.73,85.74,13611
92,85.83,85.94,85.83,85.91,9105
93,85.8,85.89,85.79,85.85,7084
94,85.76,85.89,85.74,85.8,6100
95,85.69,85.8,85.69,85.75,6400
96,85.7,85.77,85.69,85.71,10011
97,85.77,85.82,85.704,85.72,7800
98,85.57,85.83,85.57,85.7799,5799
99,85.59,85.66,85.54,85.59,5250
100,85.59,85.61,85.52,85.61,4588
101,85.47,85.59,85.46,85.59,11042
102,85.53,85.6,85.47,85.48,9018
103,85.56,85.57,85.51,85.51,5800
104,85.56,85.56,85.48,85.52,3600
105,85.53,85.56,85.51,85.55,2611
106,85.51,85.52,85.4,85.5,10003
107,85.44,85.54,85.44,85.51,19467
108,85.5,85.5,85.41,85.42,7560
109,85.46,85.5,85.4406,85.49,10100
110,85.4606,85.5089,85.46,85.47,23795
111,85.41,85.47,85.35,85.47,15880
112,85.29,85.4,85.28,85.4,3000
113,85.2,85.27,85.2,85.27,6054
114,85.274,85.29,85.21,85.21,8866
115,85.4,85.4,85.28,85.29,4511
116,85.28,85.44,85.28,85.4,14270
117,85.17,85.31,85.17,85.26,6179
118,85.23,85.23,85.1701,85.21,3165
119,85.15,85.24,85.15,85.23,4200
120,85.35,85.4,85.17,85.17,17226
121,85.32,85.37,85.32,85.33,5106
122,85.33,85.33,85.28,85.3,6982
123,85.45,85.45,85.31,85.32,29378
124,85.39,85.44,85.34,85.44,9690
125,85.25,85.44,85.25,85.39,19543
126,85.34,85.35,85.23,85.23,8950
127,85.3,85.35,85.27,85.335,7680
128,85.29,85.33,85.26,85.33,4400
129,85.28,85.38,85.26,85.28,8400
130,85.37,85.38,85.27,85.28,10276
131,85.39,85.43,85.38,85.38,13099
132,85.28,85.42,85.22,85.4,17045
133,85.46,85.485,85.265,85.265,20353
134,85.4,85.51,85.37,85.48,10429
135,85.36,85.42,85.32,85.41,3700
136,85.24,85.34,85.24,85.31,9100
137,85.1705,85.27,85.1705,85.26,2400
138,85.2,85.22,85.1,85.18,6150
139,85.2926,85.31,85.19,85.19,6350
140,85.27,85.35,85.22,85.3,11158
141,85.32,85.34,85.25,85.25,4493
142,85.29,85.43,85.29,85.32,6325
143,85.26,85.35,85.26,85.28,6200
144,85.23,85.28,85.23,85.26,7949
145,85.24,85.29,85.201,85.26,8220
146,84.9656,85.234,84.94,85.234,22296
147,85.03,85.03,84.97,84.98,21650
148,85.03,85.04,85.01,85.03,12268
149,85.0865,85.11,85.02,85.05,6337
150,85.04,85.12,85.04,85.1,8802
151,84.94,85.06,84.94,85.06,3000
152,85.04,85.05,84.93,84.95,8700
153,85.07,85.07,85.005,85.035,6256
154,85.09,85.12,85.06,85.1,7122
155,85.15,85.15,85.06,85.1,5600
156,85.11,85.17,85.08,85.13,7322
157,85.11,85.17,85.11,85.12,3500
158,85.121,85.15,85.095,85.1,5100
159,85.11,85.15,85.1,85.11,5895
160,85.27,85.27,85.13,85.13,14040
161,85.48,85.48,85.244,85.244,7301
162,85.41,85.51,85.34,85.5,9793
163,85.32,85.42,85.27,85.3894,4200
164,85.22,85.28,85.22,85.28,2900
165,85.07,85.2,85.04,85.2,5900
166,85.13,85.13,85.03,85.055,5500
167,85.07,85.15,85.07,85.1112,9248
168,85.07,85.14,85.04,85.09,10165
169,85.19,85.19,85.07,85.07,4930
170,85.19,85.24,85.13,85.21,4200
171,85.23,85.25,85.2,85.21,2601
172,85.24,85.26,85.22,85.23,4500
173,85.17,85.26,85.17,85.22,4510
174,85.14,85.25,85.14,85.175,5200
175,85.16,85.18,85.13,85.145,5500
176,85.21,85.21,85.13,85.135,3000
177,85.19,85.23,85.15,85.2,3470
178,85.17,85.23,85.165,85.21,1901
179,85.38,85.38,85.125,85.16,10673
180,85.32,85.38,85.3,85.38,5000
181,85.42,85.43,85.302,85.3131,7200
182,85.44,85.44,85.38,85.44,4600
183,85.4035,85.43,85.37,85.41,5320
184,85.3735,85.44,85.3735,85.44,7465
185,85.47,85.48,85.34,85.37,6900
186,85.42,85.46,85.36,85.45,9345
187,85.33,85.42,85.33,85.405,6100
188,85.38,85.42,85.32,85.32,3600
189,85.24,85.37,85.24,85.37,1400
190,85.31,85.31,85.23,85.23,6995
191,85.29,85.32,85.25,85.31,5700
192,85.28,85.32,85.25,85.29,6001
193,85.23,85.2424,85.21,85.24,2796
194,85.28,85.28,85.2,85.21,7010
195,85.28,85.2979,85.25,85.2979,1800
196,85.34,85.34,85.29,85.29,6000
197,85.32,85.38,85.32,85.3301,2700
198,85.34,85.37,85.293,85.3,5030
199,85.37,85.38,85.31,85.343,4050
200,85.4,85.41,85.34,85.37,17113
201,85.42,85.43,85.376,85.4,18471
202,85.42,85.44,85.38,85.4,6934
203,85.37,85.43,85.34,85.43,10951
204,85.25,85.36,85.25,85.36,5300
205,85.32,85.32,85.27,85.27,4100
206,85.3,85.3297,85.3,85.3,1700
207,85.28,85.31,85.28,85.3,2600
208,85.302,85.302,85.23,85.29,5865
209,85.3,85.3275,85.3,85.32,543
210,85.25,85.31,85.25,85.3,2225
211,85.22,85.25,85.22,85.25,1400
212,85.19,85.22,85.16,85.2,3533
213,85.22,85.22,85.15,85.15,3918
214,85.33,85.33,85.2,85.22,4710
215,85.24,85.3301,85.21,85.3301,5835
216,85.25,85.27,85.21,85.21,3180
217,85.15,85.25,85.15,85.18,3195
218,85.2801,85.3,85.16,85.18,6400
219,85.24,85.28,85.21,85.28,3050
220,85.26,85.29,85.21,85.25,2700
221,85.215,85.26,85.18,85.25,4373
222,85.23,85.23,85.19,85.2187,2840
223,85.17,85.21,85.16,85.2,2100
224,85.23,85.25,85.17,85.17,2643
225,85.34,85.34,85.2,85.22,4855
226,85.28,85.345,85.28,85.345,2500
227,85.29,85.3,85.25,85.28,4000
228,85.27,85.33,85.26,85.29,1900
229,85.34,85.36,85.28,85.29,3850
230,85.32,85.36,85.2875,85.3,21959
231,85.44,85.45,85.303,85.32,4800
232,85.3901,85.45,85.38,85.45,39550
233,85.445,85.45,85.41,85.43,4700
234,85.4673,85.48,85.445,85.445,2725
235,85.47,85.47,85.42,85.45,5175
236,85.41,85.49,85.41,85.46,6404
237,85.35,85.43,85.35,85.39,16400
238,85.33,85.4,85.3,85.37,24970
239,85.27,85.35,85.27,85.33,10041
240,85.36,85.37,85.285,85.3,5700
241,85.38,85.38,85.32,85.36,6139
242,85.34,85.36,85.275,85.36,10151
243,85.34,85.4,85.335,85.35,8600
244,85.35,85.35,85.26,85.35,9150
245,85.37,85.42,85.351,85.37,22480
246,85.5,85.53,85.36,85.38,10908
247,85.5,85.51,85.44,85.482,6100
248,85.49,85.51,85.46,85.485,6400
249,85.43,85.48,85.42,85.46,3649
250,85.36,85.48,85.36,85.445,8554
251,85.354,85.37,85.33,85.34,2478
252,85.37,85.42,85.3,85.32,6500
253,85.39,85.42,85.34,85.36,7260
254,85.41,85.45,85.36,85.38,8999
255,85.47,85.49,85.43,85.43,5641
256,85.49,85.5,85.46,85.46,16000
257,85.51,85.52,85.47,85.47,600
258,85.48,85.53,85.48,85.53,3880
259,85.51,85.55,85.48,85.51,15300
260,85.46,85.53,85.46,85.53,8555
261,85.4,85.48,85.4,85.46,6278
262,85.352,85.4,85.29,85.4,8919
263,85.28,85.34,85.28,85.34,2200
264,85.33,85.36,85.29,85.29,5524
265,85.38,85.405,85.35,85.36,8486
266,85.35,85.41,85.35,85.4,8342
267,85.39,85.39,85.34,85.38,6400
268,85.4,85.4,85.37,85.39,4900
269,85.39,85.39,85.33,85.39,5310
270,85.35,85.41,85.34,85.381,18429
271,85.37,85.39,85.32,85.34,3400
272,85.4196,85.42,85.37,85.37,10045
273,85.38,85.41,85.37,85.41,35799
274,85.41,85.41,85.37,85.38,33918
275,85.44,85.49,85.41,85.42,24900
276,85.41,85.42,85.37,85.42,4626
277,85.42,85.46,85.42,85.43,3326
278,85.41,85.41,85.37,85.403,9267
279,85.37,85.415,85.34,85.41,11685
280,85.38,85.41,85.36,85.37,8733
281,85.41,85.41,85.35,85.3899,3805
282,85.41,85.415,85.36,85.41,8087
283,85.37,85.41,85.34,85.38,8960
284,85.37,85.39,85.35,85.3776,7445
285,85.37,85.42,85.37,85.37,13555
286,85.38,85.4,85.3602,85.37,7266
287,85.38,85.4,85.36,85.38,5231
288,85.39,85.405,85.34,85.38,20578
289,85.36,85.39,85.32,85.39,9388
290,85.39,85.41,85.34,85.3596,14288
291,85.38,85.4,85.36,85.38,7450
292,85.4,85.4,85.35,85.37,7900
293,85.38,85.4,85.36,85.37,5600
294,85.39,85.43,85.36,85.37,17965
295,85.38,85.42,85.37,85.39,27806
296,85.51,85.51,85.37,85.38,16561
297,85.47,85.5097,85.46,85.5097,3625
298,85.48,85.49,85.45,85.48,5000
299,85.48,85.49,85.44,85.4765,2753
300,85.45,85.48,85.42,85.48,3105
301,85.465,85.47,85.42,85.42,5939
302,85.5059,85.52,85.46,85.47,4400
303,85.53,85.55,85.49,85.499,3048
304,85.53,85.5325,85.5,85.53,2721
305,85.64,85.64,85.54,85.54,5079
306,85.58,85.64,85.56,85.64,1598
307,85.63,85.63,85.55,85.58,2651
308,85.52,85.616,85.52,85.59,2508
309,85.46,85.51,85.45,85.5,4340
310,85.441,85.485,85.43,85.46,4300
311,85.52,85.52,85.455,85.455,4550
312,85.5,85.54,85.5,85.5201,1600
313,85.46,85.51,85.46,85.48,2700
314,85.45,85.49,85.45,85.46,4500
315,85.45,85.46,85.42,85.44,2312
316,85.45,85.48,85.43,85.4432,7722
317,85.43,85.47,85.4,85.43,3612
318,85.44,85.45,85.4,85.446,3500
319,85.48,85.48,85.4201,85.4201,5659
320,85.53,85.53,85.47,85.48,5649
321,85.49,85.51,85.45,85.51,3259
322,85.46,85.47,85.43,85.47,3250
323,85.46,85.46,85.42,85.45,3900
324,85.433,85.46,85.41,85.44,1800
325,85.47,85.48,85.445,85.46,4645
326,85.47,85.48,85.43,85.46,5800
327,85.44,85.47,85.42,85.46,2526
328,85.49,85.49,85.42,85.44,5901
329,85.49,85.51,85.47,85.48,4000
330,85.55,85.55,85.49,85.49,2554
331,85.59,85.59,85.49,85.52,4697
332,85.61,85.61,85.59,85.6,5300
333,85.56,85.61,85.56,85.6,2885
334,85.6,85.6,85.53,85.568,9715
335,85.64,85.66,85.6,85.6,4699
336,85.63,85.63,85.61,85.63,1200
337,85.68,85.72,85.59,85.6,8130
338,85.7,85.7,85.66,85.68,2600
339,85.76,85.77,85.7,85.7,6963
340,85.87,85.87,85.75,85.75,8950
341,85.92,85.94,85.85,85.88,4805
342,85.87,85.96,85.87,85.94,5800
343,85.76,85.87,85.76,85.87,7000
344,85.755,85.79,85.73,85.76,8560
345,85.71,85.76,85.71,85.76,3541
346,85.73,85.74,85.698,85.7,6380
347,85.72,85.737,85.68,85.737,4301
348,85.76,85.8,85.72,85.72,6701
349,85.75,85.8,85.75,85.7696,6105
350,85.85,85.85,85.74,85.74,7240
351,85.9,85.9,85.8,85.84,5700
352,85.96,85.98,85.91,85.91,4898
353,85.96,85.97,85.9,85.95,3700
354,85.883,85.95,85.86,85.94,8105
355,85.85,85.9,85.84,85.88,6995
356,85.82,85.84,85.76,85.84,6100
357,85.797,85.83,85.78,85.82,5435
358,85.81,85.81,85.75,85.7832,11349
359,85.745,85.79,85.74,85.79,18300
360,85.89,85.89,85.76,85.76,12720
361,85.863,85.89,85.84,85.89,5600
362,85.84,85.9,85.82,85.87,9848
363,85.81,85.84,85.805,85.83,9803
364,85.81,85.81,85.78,85.81,6400
365,85.83,85.86,85.83,85.85,8700
366,85.77,85.83,85.74,85.83,19822
367,85.72,85.77,85.69,85.77,16947
368,85.7,85.73,85.6554,85.715,18069
369,85.74,85.74,85.7,85.7,9300
370,85.75,85.81,85.735,85.74,15548
371,85.74,85.76,85.7103,85.75,10100
372,85.77,85.8,85.74,85.74,12168
373,85.77,85.78,85.76,85.77,4276
374,85.84,85.84,85.77,85.77,19214
375,85.8,85.845,85.76,85.84,19126
376,85.79,85.82,85.785,85.805,9928
377,85.7206,85.79,85.71,85.79,15056
378,85.82,85.87,85.72,85.73,24376
379,85.82,85.83,85.75,85.82,16170
380,85.8,85.83,85.77,85.81,15530
381,85.81,85.82,85.79,85.81,7858
382,85.85,85.85,85.8,85.81,18479
383,85.78,85.86,85.775,85.85,14060
384,85.79,85.8,85.77,85.79,25330
385,85.84,85.85,85.79,85.8,27189
386,85.91,85.925,85.84,85.85,36056
387,85.965,85.97,85.91,85.91,43640
388,85.975,86,85.96,85.965,83215
389,86.03,86.05,85.97,85.99,73783
a1444743060,85.08,85.2,85.01,85.13,67404
1,85.2223,85.35,84.75,85.2,32925
2,85.05,85.22,84.9701,85.02,23244
3,84.81,85.08,84.8,85.03,31829
4,85.03,85.08,84.88,84.9,8926
5,85.01,85.04,84.92,85.01,14118
6,85.22,85.22,84.85,85.01,30162
7,85.3,85.3,84.95,85.19,14520
8,85.42,85.49,85.2,85.24,13190
9,85.34,85.4006,85.1,85.4006,10538
10,85.382,85.382,85.17,85.33,18888
11,85.39,85.49,85.18,85.43,14796
12,85.3,85.46,85.3,85.3801,14136
13,85.38,85.47,85.26,85.29,9585
14,85.57,85.63,85.39,85.39,17893
15,85.55,85.8,85.49,85.61,26361
16,85.57,85.65,85.52,85.56,17117
17,85.55,85.62,85.49,85.59,24950
18,85.6901,85.76,85.52,85.55,11817
19,85.85,85.9,85.64,85.75,22010
20,85.78,85.92,85.76,85.83,19619
21,85.81,85.91,85.77,85.81,10804
22,85.63,85.85,85.56,85.79,11201
23,85.538,85.66,85.49,85.64,10159
24,85.37,85.55,85.28,85.5001,13409
25,85.19,85.43,85.14,85.38,13422
26,85.155,85.29,85.07,85.17,12750
27,85.06,85.17,84.985,85.1501,22926
28,85.1,85.24,85.03,85.12,14396
29,85.425,85.46,85.14,85.14,7572
30,85.68,85.73,85.33,85.37,11144
31,85.6,85.71,85.53,85.71,13176
32,85.71,85.7308,85.58,85.6,6620
33,85.72,85.91,85.72,85.75,10650
34,85.92,85.95,85.74,85.75,6932
35,85.76,85.97,85.68,85.96,10716
36,85.66,85.73,85.595,85.73,8743
37,85.586,85.63,85.51,85.62,6795
38,85.68,85.79,85.61,85.61,6386
39,85.57,85.68,85.53,85.68,12356
40,85.81,85.86,85.58,85.59,18036
41,85.72,85.89,85.66,85.86,8064
42,85.57,85.625,85.44,85.59,22330
43,85.58,85.68,85.54,85.59,10845
44,85.47,85.55,85.43,85.55,6030
45,85.4575,85.54,85.43,85.5,14083
46,85.61,85.63,85.43,85.455,49284
47,85.66,85.73,85.6,85.63,10898
48,85.71,85.71,85.58,85.69,8662
49,85.67,85.68,85.52,85.67,7284
50,85.515,85.66,85.49,85.64,17075
51,85.4,85.605,85.36,85.55,13175
52,85.43,85.48,85.34,85.38,13870
53,85.37,85.475,85.26,85.43,11401
54,85.222,85.36,85.22,85.31,7130
55,85.45,85.45,85.26,85.27,8224
56,85.45,85.6,85.39,85.45,8931
57,85.42,85.52,85.4,85.47,6800
58,85.39,85.57,85.37,85.48,46371
59,85.56,85.56,85.31,85.37,9950
60,85.56,85.61,85.515,85.53,16308
61,85.53,85.6,85.455,85.56,19208
62,85.55,85.64,85.55,85.57,9103
63,85.635,85.67,85.55,85.5699,6421
64,85.62,85.74,85.61,85.6899,8687
65,85.8,85.8,85.64,85.67,18115
66,85.7,85.89,85.68,85.805,17290
67,85.55,85.77,85.55,85.7,36162
68,85.58,85.6,85.52,85.6,8626
69,85.8,85.8,85.58,85.6,9609
70,85.61,85.8,85.61,85.8,5000
71,85.7,85.73,85.63,85.66,4633
72,85.732,85.79,85.71,85.72,4000
73,85.72,85.79,85.7,85.79,8818
74,85.75,85.83,85.66,85.76,16574
75,85.8101,85.89,85.7275,85.75,8726
76,85.77,85.84,85.73,85.81,8783
77,85.7999,85.81,85.74,85.75,23500
78,85.99,85.99,85.8,85.8,5995
79,85.87,86,85.85,85.995,11740
80,85.935,85.99,85.85,85.89,11355
81,85.89,85.99,85.89,85.96,7400
82,85.76,85.905,85.76,85.905,12903
83,85.665,85.77,85.65,85.77,5680
84,85.7,85.73,85.68,85.68,8900
85,85.9399,85.9399,85.735,85.76,6685
86,85.86,85.97,85.86,85.92,7970
87,85.73,85.8399,85.73,85.83,2620
88,85.7731,85.79,85.69,85.69,8348
89,85.77,85.79,85.7,85.726,28475
90,85.84,85.87,85.77,85.77,6300
91,85.84,85.886,85.8,85.87,2950
92,85.8,85.85,85.76,85.83,4830
93,85.79,85.87,85.78,85.84,7632
94,86.2,86.26,85.8,85.82,44984
95,86,86.19,85.9501,86.18,18218
96,85.94,85.99,85.94,85.95,2466
97,85.9501,86,85.92,85.99,5451
98,85.92,86.09,85.92,85.98,14031
99,85.93,85.99,85.9,85.94,4900
100,86.06,86.09,85.94,85.94,7406
101,86,86.17,85.97,86.064,8390
102,86.075,86.15,85.99,86,4050
103,85.975,86.09,85.97,86.09,4192
104,85.79,86,85.74,85.97,17657
105,85.58,85.79,85.58,85.79,10844
106,85.56,85.64,85.55,85.57,6370
107,85.65,85.69,85.605,85.61,5466
108,85.6,85.8,85.6,85.65,15785
109,85.56,85.63,85.53,85.59,8480
110,85.71,85.71,85.61,85.62,8700
111,85.76,85.78,85.6701,85.76,4159
112,85.8,85.84,85.75,85.8,8207
113,85.77,85.79,85.67,85.78,3000
114,85.74,85.84,85.67,85.7999,6920
115,85.76,85.79,85.66,85.77,5900
116,85.63,85.78,85.63,85.76,6081
117,85.65,85.69,85.62,85.63,12152
118,85.72,85.72,85.58,85.67,16621
119,85.63,85.72,85.6,85.71,40553
120,85.7,85.7,85.58,85.65,21883
121,85.73,85.74,85.63,85.68,19337
122,85.78,85.83,85.73,85.73,4400
123,85.67,85.81,85.67,85.77,4400
124,85.78,85.78,85.7,85.7,13714
125,85.95,85.95,85.78,85.8,6641
126,85.94,86.02,85.94,85.97,5682
127,86.11,86.19,85.98,85.98,5121
128,86.18,86.18,86,86.05,2720
129,86.16,86.24,86.14,86.21,3589
130,85.94,86.14,85.94,86.14,5211
131,85.98,86.03,85.91,85.97,3931
132,85.97,85.98,85.9018,85.94,54770
133,85.94,86,85.94,86,2294
134,86.05,86.07,85.89,85.92,5970
135,86.1,86.11,86.01,86.08,6322
136,86.03,86.1,86.03,86.1,1876
137,85.97,86.06,85.97,86.03,2600
138,86.02,86.04,85.94,85.97,7120
139,86.04,86.12,85.99,86.01,4951
140,86.11,86.15,86.06,86.06,3850
141,86.03,86.11,86.02,86.11,2450
142,86.02,86.036,85.99,86.036,3520
143,85.99,86.03,85.99,86.03,2400
144,86.06,86.1,85.99,86.01,1346
145,86.26,86.27,86.1,86.1,3900
146,86.13,86.23,86.09,86.23,4177
147,86.18,86.18,86.11,86.12,1623
148,86.14,86.2,86.14,86.17,3651
149,86.11,86.19,86.11,86.14,2900
150,86.18,86.23,86.08,86.12,3500
151,86.21,86.2584,86.19,86.2183,2828
152,86.16,86.2601,86.16,86.24,2475
153,86.14,86.19,86.14,86.18,1200
154,86.1,86.17,86.08,86.14,4000
155,86.06,86.08,86.04,86.08,1498
156,86.07,86.15,86.04,86.04,4601
157,86.12,86.12,86.11,86.11,800
158,86.15,86.16,86.1,86.12,3527
159,86.11,86.22,86.11,86.17,3902
160,86.06,86.1362,86.06,86.1362,1550
161,86.0801,86.11,86.0501,86.06,6500
162,86.06,86.08,86.04,86.08,2400
163,86.18,86.2,86.07,86.09,5600
164,86.22,86.29,86.2,86.2,6747
165,86.13,86.2,86.13,86.2,2100
166,86.07,86.14,86.07,86.135,1636
167,86.05,86.1,86.04,86.07,4608
168,86.08,86.11,86.03,86.04,3012
169,86.05,86.08,86.03,86.08,1400
170,86.0301,86.04,86,86.04,1327
171,86.09,86.14,86.03,86.06,3200
172,86.09,86.11,86.07,86.07,1200
173,86.0101,86.11,86.01,86.09,44490
174,86.08,86.15,86.01,86.05,8950
175,86.08,86.14,86.08,86.0901,2662
176,86.01,86.1,86.01,86.1,1600
177,86,86.04,85.99,85.99,16925
178,86.0001,86.04,86,86,4800
179,86.03,86.03,85.99,86.03,14024
180,86.02,86.12,86.02,86.02,7980
181,86.13,86.13,86,86.02,9723
182,86.04,86.13,86,86.13,5400
183,86.05,86.05,86.02,86.02,800
184,86,86.07,86,86.05,4300
185,86.1,86.1,85.99,85.99,4762
186,86.06,86.09,86.05,86.08,2709
187,86.04,86.09,86.04,86.09,7277
188,86.04,86.1,86.03,86.07,9843
189,86.09,86.09,86,86.04,14886
190,86.0201,86.0922,85.99,86.0922,11976
191,85.99,86.05,85.99,86.041,11579
192,85.915,86,85.91,86,18821
193,85.87,85.94,85.84,85.93,28737
194,85.81,85.88,85.8,85.87,7251
195,85.765,85.82,85.7,85.82,15458
196,85.67,85.75,85.67,85.75,38411
197,85.68,85.72,85.66,85.66,7524
198,85.76,85.76,85.6,85.66,31585
199,85.72,85.8,85.7,85.775,19164
200,85.8,85.82,85.74,85.74,3742
201,85.86,85.86,85.8,85.8,2500
202,85.85,85.88,85.83,85.87,4860
203,85.86,85.89,85.84,85.845,4459
204,85.85,85.85,85.81,85.85,7379
205,85.8701,85.89,85.82,85.84,5068
206,85.85,85.91,85.81,85.89,3586
207,85.81,85.86,85.8,85.85,7339
208,85.8008,85.83,85.78,85.81,2500
209,85.72,85.78,85.72,85.78,10403
210,85.71,85.73,85.665,85.68,6560
211,85.82,85.86,85.716,85.716,8841
212,85.76,85.82,85.76,85.82,1625
213,85.71,85.77,85.65,85.77,5636
214,85.8,85.82,85.74,85.74,5563
215,85.78,85.85,85.75,85.82,4906
216,85.86,85.87,85.76,85.77,5110
217,85.97,85.97,85.86,85.86,2920
218,85.91,85.97,85.91,85.9501,2941
219,85.86,85.9201,85.86,85.9201,3693
220,85.87,85.9,85.85,85.85,3005
221,85.97,85.97,85.84,85.85,3925
222,86.06,86.06,85.93,85.96,13000
223,86.11,86.14,86.06,86.08,6894
224,86.19,86.19,86.09,86.11,8130
225,86.08,86.16,86.08,86.16,1213
226,86.12,86.12,86.03,86.06,3610
227,86.12,86.15,86.08,86.08,3650
228,86.11,86.13,86.07,86.0901,4223
229,86.15,86.17,86.12,86.12,3800
230,86.09,86.14,86.09,86.14,4702
231,86.07,86.09,86,86.07,8622
232,86.03,86.1,86.01,86.07,9186
233,86.005,86.03,85.98,86.03,12203
234,86.01,86.01,85.96,85.99,6799
235,85.97,86.005,85.94,86.005,9427
236,86,86.01,85.93,85.96,6834
237,86.06,86.06,85.9701,85.9701,5100
238,86.0899,86.0899,86.04,86.05,1961
239,86.04,86.05,86.04,86.05,1250
240,86,86.03,85.98,86.03,5874
241,85.97,86.01,85.96,85.99,5130
242,86.01,86.02,85.96,85.96,6775
243,85.99,86.01,85.95,86.01,2700
244,85.99,86.005,85.96,85.99,5027
245,85.92,86,85.9,86,10052
246,85.89,85.93,85.89,85.9,3205
247,85.88,85.94,85.88,85.88,3886
248,85.94,85.94,85.86,85.875,2600
249,85.94,85.97,85.9,85.96,2413
250,85.91,85.95,85.9,85.95,2704
251,85.89,85.93,85.88,85.92,3936
252,85.88,85.9,85.85,85.87,3972
253,85.86,85.88,85.82,85.88,2091
254,85.78,85.84,85.74,85.84,3401
255,85.8201,85.85,85.77,85.8,4164
256,85.8,85.82,85.783,85.82,3534
257,85.83,85.85,85.79,85.81,1013
258,85.77,85.87,85.77,85.85,2813
259,85.686,85.8,85.686,85.8,6940
260,85.64,85.71,85.64,85.6936,9613
261,85.63,85.67,85.63,85.66,3654
262,85.64,85.65,85.614,85.62,2700
263,85.64,85.68,85.61,85.65,3300
264,85.54,85.62,85.54,85.62,2304
265,85.49,85.54,85.486,85.53,3274
266,85.4872,85.51,85.46,85.495,3252
267,85.48,85.5,85.44,85.46,4756
268,85.5,85.5,85.424,85.43,5860
269,85.49,85.51,85.47,85.48,4835
270,85.47,85.56,85.47,85.52,1909
271,85.56,85.56,85.4504,85.47,3823
272,85.545,85.55,85.51,85.53,8654
273,85.62,85.62,85.53,85.5383,10425
274,85.66,85.66,85.58,85.59,1500
275,85.63,85.7,85.62,85.66,4162
276,85.68,85.68,85.58,85.61,1900
277,85.7,85.72,85.67,85.69,2451
278,85.694,85.71,85.66,85.71,2026
279,85.82,85.82,85.72,85.72,3951
280,85.81,85.85,85.79,85.82,3856
281,85.91,85.91,85.8,85.81,2700
282,86,86.01,85.91,85.91,5536
283,85.93,86,85.93,86,5048
284,85.96,85.98,85.91,85.92,3153
285,85.91,85.97,85.9,85.97,3661
286,86,86.02,85.9,85.9,2780
287,86,86.05,85.98,86.03,2423
288,85.95,86.01,85.95,86,3140
289,85.88,85.96,85.88,85.94,5800
290,85.89,85.94,85.8501,85.8501,4475
291,85.91,85.92,85.86,85.86,1704
292,85.91,85.96,85.88,85.88,4579
293,85.83,85.89,85.83,85.884,1800
294,85.73,85.86,85.72,85.82,10635
295,85.72,85.75,85.72,85.74,16041
296,85.71,85.74,85.69,85.74,13908
297,85.74,85.75,85.67,85.705,13855
298,85.64,85.74,85.62,85.74,14132
299,85.78,85.78,85.65,85.65,8633
300,85.71,85.83,85.697,85.78,10168
301,85.69,85.724,85.63,85.724,3037
302,85.75,85.75,85.67,85.67,2586
303,85.8,85.8,85.7,85.74,3264
304,85.8699,85.8699,85.76,85.791,2911
305,85.91,85.91,85.86,85.87,1600
306,85.95,85.95,85.9,85.93,1259
307,85.96,85.97,85.96,85.97,910
308,85.98,86,85.92,86,3096
309,85.99,86,85.97,85.97,2742
310,85.9011,85.99,85.9,85.98,4355
311,85.84,85.91,85.82,85.9,2100
312,85.83,85.87,85.78,85.86,2600
313,85.83,85.83,85.7902,85.81,1631
314,85.83,85.868,85.79,85.83,6002
315,85.96,85.96,85.84,85.84,4104
316,85.98,85.99,85.92,85.92,4735
317,85.97,85.97,85.93,85.96,3860
318,86.065,86.065,85.98,85.98,6991
319,86.05,86.07,86.01,86.07,4114
320,86.0101,86.06,86.01,86.05,8567
321,86.03,86.05,86.02,86.03,4110
322,86,86.03,85.99,86.03,6494
323,86,86.03,85.98,86,6824
324,86.08,86.09,85.98,85.98,4287
325,86.1201,86.16,86.08,86.09,4139
326,86.12,86.12,86.0902,86.12,3345
327,86.22,86.24,86.1,86.1,8888
328,86.23,86.25,86.14,86.21,11849
329,86.27,86.285,86.21,86.23,10434
330,86.25,86.28,86.22,86.27,16172
331,86.23,86.29,86.23,86.26,6893
332,86.215,86.23,86.19,86.23,4783
333,86.22,86.25,86.175,86.22,20216
334,86.14,86.22,86.11,86.22,7629
335,86.03,86.1101,86.02,86.1101,6364
336,86.01,86.03,85.96,86.01,9619
337,85.99,86.02,85.97,86.01,3900
338,85.94,86.01,85.94,85.98,5950
339,85.93,85.98,85.93,85.96,5000
340,85.92,85.96,85.8901,85.93,16186
341,85.94,85.95,85.92,85.92,8483
342,85.84,85.94,85.81,85.93,9640
343,85.86,85.86,85.8,85.86,4774
344,85.89,85.92,85.83,85.87,6862
345,85.82,85.89,85.8,85.88,6240
346,85.8,85.85,85.79,85.81,7045
347,85.69,85.78,85.69,85.78,16680
348,85.55,85.695,85.55,85.695,19184
349,85.57,85.62,85.53,85.55,15702
350,85.65,85.66,85.6,85.6,5356
351,85.62,85.66,85.59,85.66,14334
352,85.59,85.65,85.57,85.62,8664
353,85.55,85.61,85.51,85.6,14196
354,85.62,85.64,85.56,85.56,7444
355,85.49,85.6199,85.44,85.61,11283
356,85.6,85.6,85.46,85.49,8563
357,85.55,85.62,85.53,85.6,5975
358,85.55,85.58,85.53,85.56,5208
359,85.6,85.62,85.55,85.55,10087
360,85.73,85.73,85.63,85.63,7264
361,85.69,85.73,85.67,85.71,8470
362,85.67,85.72,85.62,85.6999,7734
363,85.59,85.67,85.59,85.6576,8060
364,85.55,85.61,85.53,85.59,30497
365,85.58,85.58,85.53,85.55,9697
366,85.61,85.659,85.58,85.59,9630
367,85.55,85.62,85.55,85.61,10117
368,85.61,85.65,85.55,85.56,10636
369,85.61,85.63,85.6,85.6,12396
370,85.57,85.64,85.565,85.61,11919
371,85.57,85.58,85.53,85.565,19878
372,85.44,85.5599,85.44,85.5599,35815
373,85.42,85.47,85.35,85.44,14655
374,85.29,85.41,85.26,85.41,16299
375,85.37,85.4,85.28,85.28,18382
376,85.36,85.4,85.35,85.39,16650
377,85.29,85.39,85.28,85.36,15989
378,85.33,85.34,85.24,85.31,11078
379,85.39,85.42,85.33,85.33,25512
380,85.45,85.49,85.38,85.39,11918
381,85.41,85.47,85.38,85.45,28316
382,85.4,85.46,85.38,85.43,43166
383,85.35,85.42,85.35,85.41,37599
384,85.43,85.44,85.3,85.37,56829
385,85.42,85.46,85.36,85.43,30476
386,85.33,85.4,85.3,85.4,43899
387,85.31,85.33,85.29,85.33,35535
388,85.315,85.33,85.3,85.31,60010
389,85.29,85.32,85.23,85.315,99780
a1444829460,85.02,85.13,84.82,84.99,38633
1,85.04,85.14,84.93,84.93,4601
2,84.91,85.02,84.9,85.02,3866
3,84.85,84.95,84.76,84.9,2800
4,84.914,84.94,84.85,84.85,3200
5,85.31,85.42,84.95,84.95,15757
6,85.42,85.42,85.25,85.39,3722
7,85.39,85.56,85.19,85.49,14190
8,85.33,85.5,85.18,85.3,13545
9,85.42,85.65,85.23,85.39,16322
10,85.601,85.76,85.56,85.56,8516
11,85.64,85.73,85.6,85.66,6696
12,85.59,85.71,85.59,85.65,2177
13,85.78,85.78,85.61,85.61,1500
14,85.92,85.94,85.71,85.78,13445
15,85.95,85.95,85.83,85.91,3400
16,86.051,86.1,85.95,85.97,3116
17,85.89,86.14,85.89,86.12,6435
18,85.94,85.94,85.82,85.89,3200
19,85.67,85.9699,85.66,85.9699,7287
20,85.65,85.68,85.54,85.67,5288
21,85.61,85.63,85.52,85.615,6398
22,85.45,85.61,85.41,85.61,12806
23,85.48,85.53,85.39,85.445,15916
24,85.515,85.54,85.35,85.48,7546
25,85.5,85.56,85.46,85.515,27521
26,85.42,85.56,85.39,85.46,8822
27,85.39,85.43,85.37,85.37,3490
28,85.38,85.41,85.34,85.39,2300
29,85.3,85.47,85.3,85.42,8258
30,85.21,85.36,85.2,85.36,5129
31,85.25,85.3,85.15,85.2,1700
32,85.19,85.32,85.19,85.28,3034
33,85.165,85.185,85.05,85.185,19286
34,84.97,85.15,84.97,85.15,19376
35,85.0325,85.15,85,85.02,23239
36,85.06,85.08,84.99,85.04,20420
37,85.14,85.18,85.04,85.075,25681
38,85.1,85.24,85.1,85.11,16286
39,85.18,85.21,84.99,85.09,14303
40,85.26,85.37,85.18,85.18,23622
41,85.32,85.34,85.23,85.24,8079
42,85.34,85.36,85.26,85.34,13400
43,85.39,85.39,85.3086,85.34,6165
44,85.35,85.4,85.32,85.38,19479
45,85.285,85.35,85.24,85.335,21916
46,85.33,85.33,85.24,85.26,10518
47,85.38,85.441,85.32,85.35,6900
48,85.23,85.38,85.21,85.36,17750
49,85.23,85.3,85.2,85.2,3901
50,85.16,85.22,85.13,85.22,3300
51,85.11,85.23,85.11,85.2,5440
52,84.96,85.11,84.93,85.11,12311
53,85.015,85.05,84.96,84.97,17003
54,84.88,85,84.8601,85,13593
55,84.87,84.99,84.81,84.92,8829
56,84.83,84.91,84.78,84.87,13470
57,84.84,84.87,84.8,84.8,10786
58,85.04,85.07,84.88,84.88,16142
59,85.05,85.05,84.95,85.0499,4471
60,84.99,85.03,84.96,85.02,6974
61,85.08,85.13,84.96,85.02,8962
62,85.29,85.29,85.05,85.07,5385
63,85.31,85.33,85.22,85.33,5716
64,85.22,85.3,85.22,85.3,2707
65,85.07,85.24,85.07,85.2089,4385
66,85,85.11,85,85.1,2200
67,84.97,85.01,84.89,85,4106
68,84.95,84.95,84.89,84.94,2702
69,84.98,85.01,84.94,84.97,5153
70,85.11,85.17,84.98,84.99,5000
71,85.02,85.13,85.006,85.12,25560
72,85,85.08,84.99,85.05,46936
73,85.02,85.03,84.9401,85,18352
74,85.02,85.06,84.99,85.02,2484
75,84.94,84.99,84.89,84.99,14700
76,85,85.05,84.9,84.9,7473
77,84.97,84.99,84.9287,84.99,5879
78,85.03,85.06,84.94,84.97,5726
79,84.99,85.04,84.98,85.01,1400
80,84.97,84.99,84.94,84.95,5507
81,84.99,85.01,84.95,84.9501,6592
82,84.95,84.99,84.915,84.96,6140
83,85.06,85.06,84.955,84.97,4683
84,84.95,85.08,84.95,85.02,5501
85,84.95,84.98,84.9,84.93,13273
86,84.944,84.99,84.92,84.935,6597
87,84.97,84.99,84.93,84.95,6822
88,84.895,84.96,84.86,84.96,7003
89,84.97,85,84.885,84.91,2787
90,84.8501,85,84.8501,84.92,8852
91,84.9603,84.98,84.88,84.89,3125
92,85.1,85.12,84.9603,84.9603,4998
93,84.99,85.08,84.98,85.08,8370
94,84.99,85.06,84.96,84.97,7264
95,85,85.03,84.95,84.99,12428
96,85,85,84.95,84.96,7701
97,85.01,85.05,84.98,85,16952
98,85.12,85.15,84.98,84.98,6564
99,85,85.12,85,85.12,6537
100,85.08,85.08,85.005,85.005,8585
101,85.08,85.11,85.04,85.1,14903
102,85.033,85.14,85.033,85.08,4020
103,84.965,85.07,84.965,85.05,2550
104,84.955,85.04,84.955,84.97,1651
105,84.99,85.04,84.91,84.91,1845
106,85.04,85.08,84.99,84.99,4701
107,85.095,85.11,84.99,85.01,3290
108,85.15,85.22,85.05,85.095,5786
109,85.08,85.14,85.03,85.13,2700
110,84.98,85.07,84.98,85.07,3705
111,84.97,85.005,84.945,84.95,5298
112,85.065,85.07,84.9601,84.98,2728
113,85.11,85.11,85,85.065,2020
114,85.06,85.14,85.05,85.07,29709
115,85.11,85.14,85.04,85.05,3600
116,85.2,85.2,85.0989,85.0989,10315
117,85.15,85.18,85.065,85.18,8438
118,85.2,85.23,85.13,85.14,8464
119,85.15,85.26,85.14,85.23,11003
120,85.07,85.19,85.07,85.16,1891
121,85.105,85.125,85.05,85.1,3583
122,85.284,85.284,85.12,85.13,4299
123,85.13,85.28,85.074,85.28,3526
124,85.11,85.11,85.09,85.105,900
125,85.18,85.21,85.13,85.13,4276
126,85.24,85.24,85.16,85.16,3100
127,85.26,85.26,85.18,85.25,7801
128,85.3,85.33,85.23,85.27,15519
129,85.56,85.56,85.3,85.305,8407
130,85.6,85.6,85.51,85.52,8381
131,85.71,85.81,85.6,85.63,7036
132,85.64,85.75,85.63,85.73,1993
133,85.515,85.67,85.49,85.66,5175
134,85.53,85.63,85.49,85.52,4700
135,85.55,85.56,85.48,85.51,2407
136,85.585,85.61,85.48,85.52,3481
137,85.47,85.59,85.47,85.54,1646
138,85.41,85.46,85.38,85.46,4116
139,85.42,85.44,85.36,85.36,3707
140,85.38,85.47,85.38,85.44,1000
141,85.5089,85.52,85.365,85.37,4159
142,85.44,85.565,85.44,85.53,1807
143,85.56,85.59,85.46,85.46,2104
144,85.525,85.59,85.48,85.59,11111
145,85.5,85.53,85.5,85.53,1545
146,85.46,85.48,85.43,85.475,2062
147,85.46,85.475,85.41,85.46,2054
148,85.58,85.58,85.48,85.49,2759
149,85.51,85.55,85.5,85.55,8550
150,85.51,85.52,85.47,85.52,1301
151,85.4788,85.51,85.47,85.49,1254
152,85.4844,85.5,85.47,85.5,1452
153,85.475,85.51,85.47,85.5,4372
154,85.33,85.48,85.33,85.46,7019
155,85.3,85.39,85.28,85.33,4593
156,85.36,85.36,85.26,85.31,1896
157,85.31,85.36,85.29,85.36,2644
158,85.38,85.39,85.32,85.34,3200
159,85.295,85.36,85.2401,85.3501,2100
160,85.28,85.3,85.27,85.28,1247
161,85.34,85.36,85.29,85.29,900
162,85.31,85.35,85.28,85.34,2251
163,85.31,85.35,85.27,85.29,1850
164,85.4,85.44,85.3,85.3,3602
165,85.47,85.47,85.38,85.4,7302
166,85.43,85.49,85.405,85.48,2600
167,85.37,85.43,85.37,85.42,2836
168,85.35,85.35,85.275,85.33,2671
169,85.36,85.42,85.325,85.325,5107
170,85.33,85.38,85.2901,85.38,3953
171,85.43,85.43,85.34,85.34,2056
172,85.42,85.46,85.41,85.42,2501
173,85.45,85.45,85.37,85.41,4297
174,85.49,85.51,85.43,85.45,10576
175,85.49,85.55,85.44,85.51,6452
176,85.42,85.54,85.42,85.52,5239
177,85.42,85.5,85.35,85.36,6150
178,85.42,85.465,85.4,85.45,4771
179,85.34,85.39,85.32,85.39,3800
180,85.45,85.46,85.38,85.38,2112
181,85.41,85.44,85.38,85.44,2662
182,85.65,85.65,85.4,85.4,2962
183,85.53,85.62,85.53,85.59,3556
184,85.55,85.57,85.5101,85.52,1850
185,85.59,85.59,85.48,85.56,17701
186,85.57,85.59,85.54,85.585,14944
187,85.63,85.63,85.56,85.57,11850
188,85.66,85.67,85.63,85.63,1700
189,85.7399,85.75,85.69,85.6999,2455
190,85.82,85.87,85.71,85.713,2127
191,85.78,85.825,85.75,85.825,3074
192,85.78,85.829,85.78,85.795,7402
193,85.79,85.82,85.68,85.76,11101
194,85.8176,85.87,85.79,85.82,11012
195,85.86,85.86,85.78,85.8,3287
196,85.81,85.92,85.81,85.91,3512
197,85.81,85.83,85.76,85.79,2401
198,85.8,85.86,85.8,85.82,3491
199,85.76,85.88,85.76,85.819,7512
200,85.68,85.76,85.63,85.76,27084
201,85.72,85.73,85.66,85.68,22406
202,85.74,85.75,85.7,85.72,5300
203,85.7992,85.82,85.76,85.76,4850
204,85.87,85.87,85.795,85.795,2538
205,85.865,85.935,85.83,85.87,3668
206,85.81,85.85,85.78,85.85,7385
207,85.79,85.82,85.737,85.79,2808
208,85.785,85.82,85.76,85.78,2588
209,85.83,85.84,85.8,85.8,1366
210,85.82,85.875,85.795,85.84,2008
211,85.75,85.84,85.75,85.84,1777
212,85.79,85.805,85.745,85.75,3894
213,85.725,85.8,85.725,85.76,2350
214,85.68,85.72,85.64,85.72,3653
215,85.69,85.69,85.665,85.69,4000
216,85.69,85.7,85.62,85.6699,4768
217,85.63,85.7,85.585,85.7,3445
218,85.7,85.71,85.65,85.65,2802
219,85.73,85.79,85.7,85.71,3250
220,85.73,85.8,85.69,85.75,2351
221,85.78,85.78,85.73,85.74,5563
222,85.65,85.74,85.62,85.74,8901
223,85.63,85.64,85.58,85.64,5846
224,85.67,85.67,85.6,85.63,2300
225,85.74,85.76,85.68,85.71,6732
226,85.67,85.74,85.65,85.72,3700
227,85.69,85.69,85.65,85.65,3000
228,85.67,85.8,85.67,85.69,7000
229,85.7,85.7,85.61,85.68,5939
230,85.68,85.72,85.66,85.69,3604
231,85.71,85.71,85.66,85.66,3501
232,85.68,85.7,85.64,85.68,4601
233,85.71,85.71,85.66,85.67,5826
234,85.69,85.72,85.63,85.71,6950
235,85.68,85.69,85.65,85.68,2900
236,85.7,85.72,85.674,85.68,3802
237,85.73,85.75,85.69,85.69,3885
238,85.69,85.75,85.64,85.75,3354
239,85.64,85.71,85.64,85.7,2601
240,85.72,85.72,85.6,85.665,5300
241,85.77,85.77,85.6701,85.69,8498
242,85.84,85.85,85.7,85.78,5833
243,85.87,85.89,85.8,85.84,6572
244,85.78,85.895,85.78,85.88,3979
245,85.8,85.85,85.765,85.79,8413
246,85.8,85.9,85.79,85.83,12364
247,85.76,85.82,85.73,85.82,5264
248,85.67,85.78,85.63,85.77,7200
249,85.78,85.79,85.65,85.67,14138
250,85.69,85.77,85.66,85.77,3252
251,85.75,85.75,85.68,85.68,4788
252,85.68,85.74,85.68,85.74,2500
253,85.84,85.87,85.68,85.71,14595
254,85.76,85.81,85.73,85.79,3204
255,85.79,85.81,85.7201,85.78,7248
256,85.73,85.797,85.72,85.78,2953
257,85.76,85.77,85.73,85.75,3225
258,85.78,85.83,85.76,85.76,11615
259,85.78,85.86,85.77,85.78,7100
260,85.74,85.77,85.72,85.76,5822
261,85.8,85.84,85.73,85.73,6001
262,85.89,85.89,85.76,85.78,5463
263,85.84,85.94,85.84,85.92,3147
264,85.86,85.86,85.78,85.8583,4782
265,85.82,85.86,85.82,85.86,3101
266,85.76,85.82,85.76,85.82,5383
267,85.81,85.83,85.76,85.76,4400
268,85.85,85.85,85.8109,85.82,2525
269,85.83,85.85,85.82,85.83,2366
270,85.99,86.04,85.84,85.84,5661
271,86.05,86.05,86,86.01,3803
272,85.97,86.06,85.97,86.05,7100
273,85.94,85.98,85.9,85.97,3000
274,85.8631,85.91,85.8631,85.91,4510
275,85.9,85.95,85.848,85.865,4950
276,85.82,85.91,85.82,85.91,8651
277,85.85,85.85,85.82,85.82,7428
278,85.9,85.9,85.79,85.84,12322
279,85.89,85.92,85.86,85.9,3818
280,85.87,85.88,85.82,85.88,10000
281,85.86,85.9,85.83,85.88,6797
282,85.84,85.85,85.83,85.84,21072
283,85.89,85.89,85.82,85.84,5650
284,85.9,85.95,85.88,85.88,3916
285,85.92,85.93,85.85,85.89,4834
286,85.86,85.9,85.82,85.9,3751
287,85.848,85.85,85.825,85.85,1867
288,85.73,85.82,85.73,85.82,7520
289,85.7,85.75,85.68,85.72,2651
290,85.67,85.67,85.62,85.62,5801
291,85.76,85.8,85.67,85.67,5966
292,85.77,85.78,85.73,85.75,3631
293,85.7199,85.78,85.69,85.76,5260
294,85.69,85.69,85.64,85.69,4576
295,85.76,85.76,85.66,85.67,3902
296,85.67,85.79,85.67,85.76,4416
297,85.64,85.69,85.635,85.68,6141
298,85.57,85.63,85.55,85.62,4304
299,85.51,85.61,85.51,85.56,3201
300,85.56,85.57,85.443,85.52,9457
301,85.6,85.6,85.52,85.55,2500
302,85.57,85.58,85.56,85.57,1602
303,85.55,85.58,85.55,85.58,814
304,85.5,85.58,85.47,85.58,11300
305,85.54,85.56,85.48,85.49,8206
306,85.55,85.57,85.54,85.54,10451
307,85.5,85.55,85.49,85.55,3947
308,85.5599,85.57,85.5,85.5,5271
309,85.57,85.57,85.55,85.55,2349
310,85.45,85.575,85.44,85.575,4390
311,85.43,85.47,85.41,85.46,3348
312,85.4,85.44,85.37,85.44,4273
313,85.34,85.4,85.32,85.4,2885
314,85.45,85.48,85.32,85.32,23440
315,85.35,85.39,85.33,85.39,1710
316,85.32,85.32,85.27,85.31,7622
317,85.32,85.33,85.28,85.33,1756
318,85.33,85.37,85.33,85.34,2048
319,85.29,85.32,85.28,85.31,1222
320,85.28,85.29,85.24,85.29,4051
321,85.3,85.3,85.27,85.27,1701
322,85.2501,85.3,85.2501,85.28,1500
323,85.26,85.29,85.225,85.23,6282
324,85.37,85.41,85.27,85.27,2747
325,85.4,85.43,85.37,85.37,2589
326,85.36,85.39,85.345,85.39,2606
327,85.3572,85.39,85.34,85.39,863
328,85.36,85.3674,85.31,85.3674,10130
329,85.37,85.37,85.33,85.34,4330
330,85.47,85.47,85.36,85.38,3692
331,85.45,85.47,85.44,85.47,2155
332,85.46,85.47,85.45,85.45,1200
333,85.53,85.53,85.46,85.46,14147
334,85.67,85.7,85.525,85.525,17306
335,85.76,85.775,85.65,85.65,8124
336,85.69,85.77,85.69,85.77,2291
337,85.7,85.7,85.67,85.7,3593
338,85.63,85.68,85.63,85.67,3362
339,85.73,85.73,85.62,85.64,5504
340,85.71,85.77,85.7,85.72,4031
341,85.62,85.72,85.6,85.72,4804
342,85.68,85.68,85.59,85.603,3036
343,85.71,85.71,85.66,85.66,800
344,85.7,85.71,85.67,85.71,4728
345,85.68,85.73,85.68,85.69,2646
346,85.6,85.67,85.59,85.67,2545
347,85.59,85.61,85.54,85.6,3618
348,85.57,85.59,85.5566,85.59,2657
349,85.64,85.64,85.585,85.585,3902
350,85.6001,85.62,85.59,85.62,2691
351,85.5203,85.6,85.52,85.6,5766
352,85.55,85.56,85.48,85.5,10696
353,85.59,85.6,85.53,85.55,8079
354,85.56,85.6,85.55,85.59,4829
355,85.66,85.66,85.5,85.53,30254
356,85.77,85.85,85.63,85.66,11167
357,85.8,85.82,85.73,85.75,5600
358,85.85,85.85,85.76,85.82,6673
359,85.93,85.93,85.83,85.85,8089
360,86.045,86.07,85.93,85.93,13171
361,86.02,86.048,85.96,86.04,6235
362,85.94,85.99,85.9,85.99,6442
363,85.9,85.95,85.88,85.9499,5719
364,85.89,85.94,85.89,85.9,9081
365,85.89,85.92,85.88,85.88,3900
366,85.84,85.91,85.84,85.9,5461
367,85.85,85.87,85.85,85.87,2923
368,85.79,85.85,85.76,85.84,4731
369,85.76,85.79,85.73,85.79,6959
370,85.85,85.85,85.73,85.75,5617
371,85.8401,85.86,85.835,85.85,4491
372,85.91,85.91,85.81,85.84,6109
373,85.85,85.926,85.84,85.9101,5109
374,85.88,85.89,85.829,85.84,9256
375,85.78,85.87,85.76,85.87,13848
376,85.84,85.86,85.78,85.78,6682
377,85.83,85.89,85.78,85.85,8598
378,85.76,85.81,85.75,85.79,6377
379,85.73,85.78,85.73,85.76,9596
380,85.7,85.76,85.7,85.73,11731
381,85.65,85.69,85.64,85.69,8633
382,85.72,85.72,85.58,85.65,22255
383,85.66,85.75,85.66,85.72,11812
384,85.62,85.67,85.62,85.67,9906
385,85.62,85.64,85.59,85.64,10211
386,85.67,85.74,85.61,85.61,13492
387,85.68,85.7,85.67,85.67,17530
388,85.69,85.71,85.675,85.68,13661
389,85.81,85.81,85.69,85.69,35457
a1444915860,85.28,85.41,85.21,85.3,36936
1,85.38,85.38,85.21,85.21,5600
2,85.6,85.62,85.39,85.4,18377
3,85.55,85.67,85.5,85.62,8668
4,85.655,85.655,85.53,85.64,8050
5,85.39,85.655,85.39,85.655,20819
6,85.43,85.465,85.11,85.38,18865
7,85.13,85.42,85.13,85.42,21150
8,85.27,85.36,85.11,85.2,7223
9,85.39,85.39,85.18,85.28,4742
10,85.13,85.33,84.93,85.33,10825
11,85.03,85.18,84.96,85.13,5790
12,85,85.27,84.95,85.1,18821
13,85.145,85.21,84.94,85,16835
14,85.14,85.21,85,85.21,5545
15,85.22,85.23,85.11,85.11,700
16,85.25,85.25,85.18,85.21,4064
17,85.435,85.4697,85.3,85.34,14886
18,85.54,85.57,85.41,85.46,12576
19,85.6099,85.6099,85.4,85.51,10805
20,85.56,85.71,85.52,85.52,6204
21,85.58,85.62,85.5301,85.62,2544
22,85.67,85.76,85.5,85.56,3800
23,85.57,85.68,85.57,85.68,7699
24,85.61,85.68,85.5,85.56,7904
25,85.62,85.79,85.57,85.57,5380
26,85.74,85.76,85.62,85.63,2800
27,85.7199,85.72,85.61,85.7,3200
28,85.57,85.66,85.4901,85.66,2627
29,85.705,85.74,85.49,85.5,3400
30,86.0431,86.0431,85.71,85.75,5000
31,85.93,86.06,85.92,86.06,5688
32,85.68,85.9,85.68,85.9,15042
33,85.76,85.82,85.715,85.75,4800
34,85.7,85.75,85.63,85.75,2800
35,85.865,85.9199,85.71,85.71,9997
36,85.88,86.03,85.88,85.9,9770
37,85.94,86.06,85.92,85.93,6825
38,85.885,86.05,85.87,85.98,10984
39,85.905,85.94,85.815,85.89,4389
40,85.87,85.97,85.85,85.93,1100
41,85.91,85.93,85.81,85.88,7260
42,85.87,85.95,85.87,85.91,8613
43,85.8625,85.92,85.84,85.92,7048
44,85.85,85.93,85.85,85.89,2125
45,85.9,85.9,85.84,85.86,1167
46,85.78,85.85,85.73,85.84,3104
47,85.81,85.81,85.79,85.81,1000
48,85.82,85.86,85.75,85.77,3400
49,85.81,85.86,85.81,85.83,1105
50,85.7601,85.86,85.7601,85.86,3200
51,85.87,85.9,85.81,85.81,2801
52,85.7,85.84,85.7,85.84,9800
53,85.76,85.76,85.66,85.71,3209
54,85.75,85.75,85.68,85.72,3402
55,85.66,85.72,85.66,85.72,1300
56,85.68,85.72,85.66,85.66,4439
57,85.66,85.7,85.61,85.69,3700
58,85.63,85.65,85.61,85.65,1800
59,85.53,85.7,85.48,85.65,9700
60,85.5,85.52,85.3448,85.52,5722
61,85.6,85.62,85.46,85.48,3226
62,85.68,85.74,85.62,85.62,3100
63,85.82,85.82,85.7,85.71,3300
64,85.82,85.93,85.82,85.85,3447
65,85.87,85.87,85.81,85.81,1400
66,85.77,85.89,85.77,85.87,2850
67,85.76,85.83,85.76,85.79,1200
68,85.74,85.75,85.65,85.75,2280
69,85.76,85.76,85.74,85.74,1300
70,85.85,85.85,85.74,85.74,2100
71,85.84,85.89,85.82,85.83,2969
72,85.85,85.86,85.8,85.842,4126
73,85.76,85.87,85.73,85.86,5337
74,85.69,85.755,85.67,85.755,8578
75,85.74,85.74,85.65,85.66,4720
76,85.71,85.715,85.68,85.71,1500
77,85.74,85.78,85.67,85.73,6675
78,85.74,85.78,85.715,85.743,2880
79,85.67,85.76,85.65,85.72,4600
80,85.7,85.73,85.68,85.685,5080
81,85.68,85.74,85.67,85.7,5700
82,85.72,85.73,85.68,85.69,2840
83,85.61,85.72,85.6,85.72,11800
84,85.51,85.6,85.5,85.6,4750
85,85.652,85.652,85.535,85.535,5152
86,85.65,85.67,85.6311,85.64,1850
87,85.76,85.82,85.675,85.68,4060
88,85.77,85.79,85.76,85.76,1975
89,85.66,85.78,85.61,85.78,9525
90,85.54,85.63,85.42,85.61,9746
91,85.59,85.62,85.45,85.59,11307
92,85.495,85.6,85.36,85.6,19404
93,85.471,85.5,85.39,85.49,2902
94,85.48,85.51,85.43,85.46,2100
95,85.44,85.49,85.37,85.46,5787
96,85.42,85.52,85.37,85.52,5847
97,85.38,85.42,85.36,85.4,2363
98,85.3,85.36,85.26,85.35,3600
99,85.18,85.3,85.11,85.28,5813
100,85.19,85.27,85.17,85.2,8625
101,85.16,85.34,85.16,85.23,13588
102,85.3,85.3,85.14,85.15,5000
103,85.23,85.33,85.21,85.3,4300
104,85.27,85.27,85.18,85.24,107025
105,85.33,85.33,85.24,85.28,3100
106,85.23,85.33,85.21,85.33,3552
107,85.22,85.3,85.18,85.25,6773
108,85.14,85.22,85.13,85.21,4260
109,85.14,85.21,85.01,85.17,39681
110,85.14,85.19,85.08,85.19,6404
111,85.11,85.18,85.07,85.15,10854
112,85.17,85.1899,85.08,85.12,4762
113,85.18,85.18,85.07,85.15,6374
114,85.145,85.24,85.11,85.2,9213
115,85.18,85.22,85.07,85.145,39630
116,85.24,85.27,85.18,85.18,4700
117,85.28,85.286,85.22,85.28,4400
118,85.32,85.32,85.26,85.26,6969
119,85.33,85.4399,85.33,85.33,8609
120,85.3282,85.35,85.31,85.35,2441
121,85.29,85.31,85.29,85.31,1300
122,85.36,85.36,85.2901,85.31,2010
123,85.38,85.42,85.35,85.42,5543
124,85.38,85.42,85.34,85.41,3500
125,85.32,85.415,85.32,85.4,3631
126,85.36,85.4,85.31,85.31,2600
127,85.43,85.44,85.3401,85.3401,2900
128,85.3971,85.45,85.38,85.41,1850
129,85.2901,85.4,85.2901,85.38,2800
130,85.31,85.325,85.27,85.29,1400
131,85.3,85.33,85.25,85.31,6600
132,85.28,85.29,85.25,85.29,2121
133,85.19,85.26,85.19,85.26,1200
134,85.1601,85.2,85.12,85.17,4444
135,85.13,85.2,85.13,85.16,6626
136,85.25,85.27,85.13,85.15,3500
137,85.21,85.29,85.21,85.25,20200
138,85.22,85.24,85.19,85.23,6825
139,85.2,85.25,85.19,85.21,5412
140,85.2,85.23,85.19,85.2,11144
141,85.26,85.326,85.195,85.22,7798
142,85.26,85.26,85.21,85.25,2531
143,85.27,85.288,85.2,85.23,4700
144,85.32,85.36,85.3,85.3,4755
145,85.25,85.29,85.21,85.29,4323
146,85.225,85.24,85.19,85.23,25528
147,85.25,85.3,85.19,85.24,16392
148,85.32,85.34,85.27,85.27,1617
149,85.35,85.35,85.32,85.32,2750
150,85.3,85.34,85.26,85.34,1800
151,85.366,85.4,85.28,85.28,2800
152,85.36,85.37,85.32,85.37,2505
153,85.46,85.46,85.38,85.38,3462
154,85.4325,85.5,85.4201,85.46,10400
155,85.44,85.54,85.4,85.43,6849
156,85.46,85.5,85.46,85.5,1900
157,85.43,85.46,85.395,85.46,5100
158,85.4445,85.46,85.43,85.45,1928
159,85.6,85.6,85.45,85.47,4303
160,85.63,85.63,85.55,85.57,3400
161,85.58,85.63,85.58,85.62,3100
162,85.58,85.65,85.58,85.61,22184
163,85.505,85.57,85.48,85.57,16860
164,85.5,85.52,85.48,85.505,17154
165,85.45,85.51,85.45,85.51,4606
166,85.49,85.49,85.4,85.44,3300
167,85.49,85.51,85.46,85.475,17949
168,85.51,85.51,85.48,85.5,15775
169,85.505,85.54,85.44,85.5,18702
170,85.52,85.55,85.49,85.52,15623
171,85.555,85.57,85.49,85.52,19843
172,85.595,85.62,85.55,85.555,29145
173,85.56,85.645,85.56,85.595,11358
174,85.575,85.61,85.56,85.57,6553
175,85.66,85.66,85.5,85.575,33228
176,85.76,85.78,85.64,85.65,4900
177,85.989,85.99,85.79,85.8,7488
178,85.95,85.99,85.93,85.99,5392
179,86.01,86.01,85.97,85.99,5789
180,86.03,86.03,85.98,86,7979
181,85.98,86.05,85.98,86.04,3450
182,86.06,86.06,85.95,86,3756
183,85.95,86.09,85.92,86.07,5780
184,86.015,86.03,85.95,85.95,3340
185,85.985,86.02,85.985,86.02,1204
186,85.99,86.02,85.97,86,6100
187,86.01,86.03,85.99,86.02,2487
188,86.03,86.04,86.01,86.01,1350
189,85.98,86.0399,85.98,86.0399,2500
190,85.93,85.99,85.92,85.9867,3814
191,85.88,85.93,85.88,85.93,1650
192,85.92,85.94,85.905,85.92,4500
193,85.94,85.96,85.92,85.93,2300
194,86.055,86.055,85.94,85.945,4612
195,86.0299,86.05,85.99,86.05,3457
196,85.99,86.02,85.96,85.99,4370
197,85.99,86,85.94,86,5100
198,86.07,86.07,85.98,85.98,8009
199,86.055,86.06,85.99,86.05,13284
200,86.13,86.14,86.04,86.07,9250
201,86.32,86.34,86.13,86.13,14600
202,86.16,86.3,86.14,86.3,7022
203,86.15,86.2,86.12,86.13,4400
204,86.26,86.26,86.15,86.15,4614
205,86.38,86.38,86.3,86.3,2600
206,86.55,86.55,86.34,86.36,10492
207,86.45,86.58,86.43,86.58,6385
208,86.55,86.6,86.5,86.5,8700
209,86.58,86.59,86.5,86.55,10297
210,86.56,86.61,86.5281,86.57,5054
211,86.48,86.57,86.47,86.55,5052
212,86.45,86.5,86.44,86.48,8525
213,86.43,86.46,86.39,86.46,4333
214,86.45,86.46,86.415,86.42,5125
215,86.54,86.585,86.45,86.46,7010
216,86.54,86.55,86.52,86.53,2764
217,86.5,86.53,86.46,86.51,10900
218,86.54,86.55,86.51,86.51,3695
219,86.54,86.56,86.5,86.55,6950
220,86.5501,86.61,86.54,86.55,14550
221,86.615,86.615,86.55,86.55,9436
222,86.63,86.63,86.59,86.6,5373
223,86.63,86.67,86.6,86.63,3800
224,86.65,86.65,86.59,86.61,4400
225,86.63,86.67,86.62,86.65,2500
226,86.695,86.695,86.6,86.638,3550
227,86.72,86.72,86.66,86.68,3800
228,86.68,86.7286,86.63,86.72,6562
229,86.67,86.74,86.67,86.69,5263
230,86.59,86.67,86.59,86.66,1300
231,86.6,86.63,86.6,86.61,2500
232,86.56,86.6,86.56,86.595,2000
233,86.58,86.58,86.56,86.57,3400
234,86.65,86.67,86.59,86.61,8800
235,86.73,86.73,86.654,86.66,5346
236,86.67,86.74,86.67,86.71,2800
237,86.715,86.74,86.66,86.68,4321
238,86.785,86.8,86.715,86.715,4348
239,86.79,86.86,86.78,86.79,6027
240,86.86,86.86,86.76,86.8,3861
241,86.7698,86.82,86.75,86.82,4204
242,86.68,86.75,86.68,86.75,2693
243,86.65,86.7,86.65,86.7,4551
244,86.62,86.66,86.61,86.64,3802
245,86.6,86.62,86.57,86.6,6884
246,86.6,86.65,86.5901,86.625,20233
247,86.69,86.69,86.6,86.62,9200
248,86.65,86.68,86.62,86.68,13555
249,86.65,86.7,86.64,86.64,4256
250,86.63,86.66,86.62,86.66,4481
251,86.5815,86.63,86.57,86.61,4900
252,86.545,86.575,86.5308,86.57,4700
253,86.56,86.62,86.55,86.55,2800
254,86.6,86.61,86.56,86.58,1600
255,86.62,86.64,86.59,86.6,3888
256,86.66,86.66,86.621,86.621,1900
257,86.605,86.65,86.58,86.65,5500
258,86.58,86.605,86.57,86.605,2600
259,86.65,86.65,86.59,86.59,6800
260,86.6,86.65,86.59,86.65,1900
261,86.57,86.62,86.56,86.61,4900
262,86.555,86.57,86.53,86.57,5000
263,86.54,86.59,86.53,86.57,5043
264,86.555,86.565,86.55,86.56,1000
265,86.58,86.58,86.54,86.57,5950
266,86.6,86.6,86.55,86.55,1700
267,86.585,86.605,86.55,86.6,4294
268,86.66,86.66,86.5871,86.5871,2900
269,86.555,86.68,86.5441,86.68,10310
270,86.54,86.6,86.54,86.56,5900
271,86.64,86.66,86.52,86.53,6018
272,86.59,86.64,86.56,86.63,4009
273,86.62,86.66,86.61,86.62,2000
274,86.62,86.651,86.6,86.6297,3245
275,86.64,86.64,86.59,86.62,2000
276,86.59,86.67,86.59,86.65,4000
277,86.57,86.61,86.5678,86.61,5480
278,86.5,86.58,86.5,86.561,5829
279,86.58,86.61,86.4802,86.4802,7317
280,86.55,86.57,86.54,86.57,4290
281,86.57,86.6,86.56,86.57,6954
282,86.61,86.61,86.56,86.56,2900
283,86.66,86.66,86.58,86.58,1600
284,86.67,86.7,86.65,86.67,6481
285,86.7,86.71,86.67,86.6811,2550
286,86.77,86.77,86.6872,86.6872,4438
287,86.73,86.76,86.73,86.75,3900
288,86.75,86.77,86.73,86.74,3900
289,86.78,86.8,86.71,86.73,3770
290,86.83,86.84,86.75,86.78,5301
291,86.88,86.88,86.795,86.84,5094
292,86.77,86.84,86.76,86.84,6075
293,86.8,86.8,86.76,86.77,5614
294,86.89,86.89,86.79,86.8012,4233
295,86.81,86.92,86.81,86.88,8764
296,86.79,86.84,86.79,86.83,5502
297,86.82,86.84,86.796,86.8099,5516
298,86.82,86.85,86.79,86.85,9235
299,86.75,86.79,86.75,86.79,3000
300,86.77,86.79,86.74,86.74,2390
301,86.8,86.83,86.76,86.76,6835
302,87,87,86.83,86.83,25235
303,86.97,86.985,86.93,86.98,4600
304,87.055,87.055,86.945,86.95,11231
305,87.01,87.06,87,87.04,6514
306,86.93,87.01,86.91,87.01,7175
307,86.94,86.96,86.92,86.94,4200
308,86.97,86.97,86.91,86.97,1800
309,86.972,87,86.96,86.98,3453
310,87.02,87.06,87.01,87.01,2835
311,87.02,87.04,86.98,86.98,1350
312,87.07,87.11,87.01,87.02,6521
313,87.07,87.09,87.05,87.07,4460
314,87.04,87.1,87.04,87.08,2448
315,87.0399,87.07,87.03,87.04,2032
316,86.98,87.03,86.96,87.01,2700
317,86.96,86.99,86.94,86.96,5302
318,86.93,86.9525,86.89,86.95,6381
319,87.005,87.005,86.93,86.95,2630
320,86.94,87.02,86.94,87.02,5338
321,86.95,86.9797,86.92,86.9401,4805
322,86.95,87,86.93,86.94,7364
323,86.9,86.95,86.89,86.9476,3200
324,86.94,86.94,86.9,86.92,5299
325,86.96,86.96,86.915,86.94,7417
326,87.01,87.03,86.948,86.9797,6676
327,87.06,87.07,87.005,87.01,2722
328,87.05,87.08,87.04,87.07,5672
329,87.04,87.06,87.01,87.0573,5453
330,87,87.03,86.97,87.02,10708
331,86.98,87.03,86.9694,86.99,6480
332,87.09,87.09,86.98,86.99,5062
333,87.09,87.13,87.06,87.1,8359
334,87.02,87.09,86.99,87.09,7243
335,87.03,87.05,87,87.027,9662
336,87.01,87.05,87,87.04,8900
337,87.03,87.06,86.99,87.01,8272
338,87.02,87.08,87.02,87.02,3680
339,86.96,87.02,86.96,87.01,7922
340,86.945,86.97,86.93,86.96,8628
341,86.942,86.96,86.93,86.95,4860
342,86.96,86.99,86.92,86.94,9568
343,87,87,86.95,86.98,4800
344,87,87.02,86.97,87,9500
345,86.95,87.01,86.93,87,9032
346,86.95,86.95,86.88,86.94,10009
347,86.96,86.97,86.912,86.94,5519
348,86.97,86.98,86.935,86.96,6700
349,86.99,86.995,86.96,86.96,6579
350,87.11,87.11,86.96,86.99,17873
351,87.13,87.15,87.07,87.1,11071
352,87.02,87.13,86.98,87.13,13554
353,87.01,87.07,87,87.047,4720
354,87.03,87.0303,86.99,87.01,4322
355,86.93,87.04,86.88,87.04,10686
356,86.95,86.98,86.92,86.932,6956
357,86.96,86.99,86.93,86.95,5560
358,87.05,87.08,86.97,86.98,4198
359,87.07,87.09,87.05,87.07,8584
360,86.99,87.05,86.97,87.05,10702
361,86.94,86.99,86.94,86.98,9181
362,86.94,86.99,86.91,86.97,9882
363,86.86,86.93,86.85,86.92,12837
364,86.83,86.87,86.78,86.86,14904
365,86.76,86.84,86.75,86.84,13364
366,86.81,86.82,86.74,86.75,4917
367,86.82,86.82,86.74,86.82,5484
368,86.86,86.86,86.79,86.81,7422
369,86.78,86.85,86.78,86.85,7658
370,86.76,86.82,86.74,86.778,8490
371,86.805,86.82,86.76,86.77,7850
372,86.8,86.86,86.8,86.82,4529
373,86.83,86.86,86.8,86.83,6180
374,86.91,86.95,86.795,86.8,18673
375,86.86,86.93,86.82,86.91,23978
376,86.92,86.93,86.84,86.86,10289
377,86.88,86.92,86.88,86.92,10415
378,86.9126,86.92,86.865,86.9,13455
379,86.92,86.93,86.89,86.91,11782
380,86.87,86.915,86.86,86.915,13084
381,86.89,86.89,86.84,86.87,12199
382,86.92,86.94,86.88,86.88,11023
383,86.96,86.99,86.925,86.94,13308
384,87,87,86.95,86.96,18027
385,87,87.03,86.99,87.01,21044
386,86.99,87.05,86.98,87.01,19431
387,87.035,87.04,86.96,86.99,29118
388,87.06,87.08,87.03,87.04,52778
389,87.13,87.16,87.05,87.05,107605
a1445002260,87.52,87.8,87.51,87.75,198101
1,87.32,87.555,87.29,87.47,13032
2,87.64,87.64,87.34,87.34,5692
3,87.64,87.69,87.53,87.64,17045
4,87.48,87.7,87.44,87.65,8181
5,87.688,87.8,87.485,87.49,58526
6,87.86,87.98,87.62,87.69,11484
7,87.62,87.88,87.58,87.854,8363
8,87.96,87.96,87.63,87.63,4572
9,87.97,88,87.91,87.93,15952
10,87.9,87.94,87.83,87.91,12679
11,87.802,87.92,87.72,87.91,17807
12,87.82,87.87,87.7401,87.8,8984
13,87.61,87.8,87.61,87.8,12253
14,87.63,87.72,87.58,87.59,12784
15,87.34,87.62,87.33,87.62,10307
16,87.15,87.36,87.15,87.34,24038
17,87.1296,87.26,87.1296,87.18,7034
18,87.109,87.21,87.06,87.15,10793
19,86.8,87.09,86.74,87.09,12124
20,86.88,86.97,86.8,86.8,5958
21,87.21,87.21,86.84,86.88,7467
22,87.26,87.29,87.01,87.175,13475
23,87.144,87.31,87.1,87.28,6103
24,87.09,87.18,87.04,87.13,4089
25,87.28,87.28,87.01,87.03,11840
26,87.13,87.29,87.12,87.26,3583
27,87.05,87.11,87.01,87.11,7600
28,87.05,87.12,87.04,87.1,3600
29,87.085,87.09,87.01,87.06,5610
30,87.095,87.1762,87.05,87.095,14118
31,87.265,87.31,87.08,87.095,26162
32,87.31,87.46,87.27,87.29,15772
33,87.17,87.23,87.08,87.23,7219
34,87.37,87.38,87.17,87.17,14472
35,87.32,87.37,87.26,87.35,38374
36,87.09,87.4099,87.06,87.325,33762
37,87.205,87.23,87.07,87.08,32874
38,87.345,87.38,87.205,87.23,6601
39,87.26,87.35,87.23,87.31,5407
40,87.06,87.25,87.05,87.23,5005
41,87.06,87.07,86.99,87.04,5973
42,87.155,87.16,87.04,87.04,4100
43,87.06,87.14,87.01,87.13,8401
44,87,87.11,87,87.08,2630
45,86.92,86.994,86.8601,86.994,2383
46,86.87,86.92,86.83,86.92,3200
47,86.995,87.02,86.875,86.89,5894
48,86.86,87,86.83,87,12954
49,86.91,86.94,86.85,86.89,5550
50,86.8472,86.88,86.804,86.87,10339
51,86.98,86.98,86.81,86.85,6310
52,86.83,86.975,86.78,86.96,9100
53,86.87,86.87,86.74,86.84,16496
54,86.79,86.89,86.79,86.87,4600
55,86.76,86.77,86.69,86.77,5200
56,86.705,86.81,86.69,86.7764,6790
57,86.8,86.836,86.705,86.72,7300
58,86.83,86.86,86.78,86.8,9502
59,86.94,86.94,86.835,86.835,5102
60,87.02,87.02,86.93,86.96,9446
61,86.93,86.99,86.915,86.99,4801
62,86.89,86.94,86.86,86.94,5000
63,86.91,86.96,86.88,86.9,11499
64,86.82,86.91,86.8,86.91,6300
65,86.91,86.91,86.81,86.82,10000
66,87,87.01,86.86,86.93,9843
67,87,87.07,86.95,87.02,6465
68,87.16,87.17,87,87,5293
69,87.26,87.26,87.16,87.165,3545
70,87.25,87.31,87.24,87.24,2673
71,87.24,87.27,87.23,87.27,7070
72,87.29,87.33,87.19,87.25,15743
73,87.255,87.3199,87.24,87.3199,6465
74,87.23,87.26,87.22,87.255,8874
75,87.27,87.32,87.2,87.235,8040
76,87.32,87.36,87.26,87.26,7091
77,87.25,87.3,87.22,87.3,16238
78,87.19,87.24,87.17,87.24,6530
79,87.15,87.19,87.12,87.19,6300
80,86.99,87.16,86.965,87.16,7251
81,87.06,87.09,87,87.01,4531
82,87.1,87.15,87.055,87.07,3353
83,87.12,87.17,87.115,87.13,2689
84,87.06,87.11,87,87.11,10157
85,87.035,87.07,87.03,87.05,942
86,87.02,87.09,87.02,87.07,4918
87,86.95,87.06,86.95,87.01,8190
88,86.77,86.99,86.77,86.97,3300
89,86.785,86.85,86.765,86.77,7200
90,86.88,86.92,86.8,86.8,4800
91,86.82,86.865,86.82,86.865,3171
92,86.86,86.92,86.82,86.8204,6219
93,86.98,87.01,86.87,86.87,3118
94,86.97,86.99,86.96,86.98,3612
95,86.91,86.98,86.87,86.97,14236
96,86.89,86.91,86.89,86.9,1797
97,86.9,86.9,86.825,86.89,5444
98,86.98,86.99,86.86,86.87,6459
99,87.03,87.05,87,87,4650
100,87.04,87.04,86.96,87,4739
101,87.03,87.07,87.01,87.03,6068
102,86.93,87.0494,86.93,87.0435,5413
103,87.0004,87.0004,86.93,86.95,2990
104,87,87.02,86.98,86.98,2980
105,86.82,86.97,86.82,86.97,6200
106,86.96,86.96,86.8,86.8,5483
107,86.98,86.99,86.93,86.97,1650
108,86.92,86.99,86.92,86.98,4231
109,86.97,86.98,86.9,86.9,3300
110,86.97,86.99,86.9506,86.9506,1400
111,87.01,87.02,86.96,86.98,6800
112,87.03,87.07,87,87.01,17444
113,87.11,87.11,87.03,87.03,2438
114,87.04,87.09,87,87.09,6084
115,86.9964,87.05,86.98,87.04,20301
116,86.995,87.1,86.995,87.01,9117
117,87.07,87.11,86.99,86.995,6397
118,87.08,87.09,87.01,87.06,8400
119,87.08,87.08,87,87.0635,7405
120,86.995,87.1,86.9908,87.09,5801
121,86.99,87,86.94,86.98,7900
122,87.05,87.05,86.975,86.975,4500
123,87.1,87.11,87.04,87.04,3727
124,87.07,87.13,87.04,87.09,4600
125,87.05,87.12,87.05,87.07,3901
126,86.95,87.06,86.94,87.05,9387
127,86.9121,86.985,86.88,86.98,9077
128,87.04,87.06,86.905,86.92,5765
129,86.9,87.02,86.855,87.02,3644
130,86.86,86.89,86.86,86.88,3400
131,86.855,86.89,86.85,86.87,4452
132,86.81,86.85,86.78,86.85,5000
133,86.855,86.86,86.79,86.79,3599
134,86.84,86.855,86.83,86.855,4892
135,86.87,86.91,86.84,86.84,4237
136,86.87,86.88,86.83,86.84,2200
137,86.85,86.93,86.85,86.9,3750
138,86.78,86.86,86.78,86.86,10829
139,86.79,86.8,86.76,86.78,6513
140,86.76,86.78,86.72,86.78,5655
141,86.81,86.81,86.75,86.76,4950
142,86.87,86.87,86.81,86.81,4473
143,86.86,86.89,86.84,86.87,4252
144,86.86,86.92,86.86,86.87,5948
145,86.75,86.85,86.72,86.85,8351
146,86.73,86.76,86.72,86.74,3150
147,86.89,86.89,86.78,86.78,1606
148,86.855,86.88,86.85,86.88,4811
149,86.85,86.88,86.84,86.85,5102
150,86.86,86.9,86.83,86.85,5446
151,86.85,86.87,86.83,86.86,6400
152,86.86,86.91,86.85,86.85,5380
153,86.91,86.93,86.84,86.85,4495
154,86.95,86.97,86.91,86.91,4270
155,86.97,86.97,86.94,86.955,4722
156,86.98,87.02,86.98,86.99,6997
157,86.97,87.03,86.97,86.98,12587
158,86.99,87.01,86.96,86.97,3670
159,86.96,86.99,86.96,86.98,15420
160,86.91,86.96,86.89,86.96,5900
161,86.95,86.97,86.91,86.91,5302
162,86.98,86.98,86.92,86.95,3277
163,86.945,86.96,86.93,86.96,2700
164,86.9,86.93,86.89,86.93,8347
165,86.9,86.92,86.88,86.905,12545
166,86.8901,86.91,86.87,86.89,5641
167,86.975,87.01,86.92,86.92,9057
168,87,87.01,86.98,86.98,8051
169,87.02,87.03,86.99,87.01,11987
170,87,87.03,86.99,87.01,3084
171,86.96,86.99,86.96,86.98,2400
172,87,87.01,86.95,86.98,4041
173,86.98,86.99,86.95,86.98,4192
174,86.9,86.95,86.85,86.95,10804
175,86.85,86.9,86.85,86.89,4028
176,86.93,86.93,86.86,86.86,4800
177,86.95,86.95,86.88,86.92,4502
178,86.925,86.94,86.91,86.94,4952
179,86.86,86.96,86.85,86.92,8324
180,86.88,86.88,86.845,86.85,3950
181,86.83,86.93,86.83,86.88,5514
182,86.85,86.87,86.82,86.83,9080
183,86.76,86.84,86.76,86.84,9396
184,86.86,86.86,86.75,86.76,4093
185,86.89,86.89,86.82,86.84,3554
186,86.875,86.89,86.86,86.88,4368
187,86.86,86.88,86.82,86.875,8366
188,86.86,86.87,86.85,86.86,3950
189,86.89,86.92,86.85,86.86,3138
190,86.82,86.88,86.81,86.88,5843
191,86.83,86.83,86.79,86.81,5472
192,86.82,86.85,86.81,86.83,5628
193,86.73,86.81,86.73,86.81,5223
194,86.65,86.72,86.65,86.72,3989
195,86.64,86.69,86.64,86.67,3032
196,86.7,86.7,86.63,86.63,3744
197,86.64,86.71,86.63,86.7,9048
198,86.72,86.72,86.635,86.64,5751
199,86.77,86.7859,86.7,86.73,5157
200,86.73,86.78,86.72,86.77,7380
201,86.67,86.74,86.65,86.73,17656
202,86.65,86.73,86.65,86.67,10246
203,86.64,86.64,86.61,86.63,11162
204,86.61,86.64,86.61,86.63,5000
205,86.69,86.69,86.62,86.63,7525
206,86.62,86.66,86.6,86.66,7446
207,86.63,86.65,86.61,86.64,5172
208,86.64,86.64,86.63,86.63,3453
209,86.685,86.71,86.64,86.64,5575
210,86.69,86.69,86.66,86.68,1700
211,86.62,86.6703,86.56,86.67,9797
212,86.73,86.73,86.61,86.61,3250
213,86.83,86.83,86.74,86.74,5623
214,87.09,87.09,86.85,86.85,4225
215,87.1,87.16,87.03,87.07,6897
216,87.03,87.13,87.0101,87.13,8650
217,87,87.03,86.9427,87.01,6551
218,86.99,87.02,86.975,87.0001,4086
219,86.97,87.02,86.96,87.01,3068
220,87.045,87.06,87,87,20342
221,87.01,87.06,87.01,87.05,6837
222,87.01,87.05,87,87.02,6301
223,87.01,87.03,86.98,87,7095
224,87.01,87.01,86.98,86.99,1900
225,87.01,87.04,86.99,87.01,4420
226,87.02,87.03,86.99,87.02,4683
227,86.95,87.02,86.93,87.015,8519
228,86.96,86.98,86.93,86.95,6486
229,86.98,87.015,86.9501,86.9501,14666
230,86.99,87.04,86.96,86.98,10639
231,87.01,87.0158,86.97,86.99,10078
232,87,87.03,86.98,87.02,7250
233,86.95,87,86.92,87,9294
234,86.92,86.98,86.92,86.955,5844
235,86.8,86.9,86.8,86.9,2600
236,86.86,86.87,86.8,86.81,3596
237,86.78,86.875,86.78,86.875,2080
238,86.79,86.79,86.78,86.78,1054
239,86.74,86.76,86.7,86.76,5090
240,86.7759,86.82,86.73,86.74,5497
241,86.86,86.86,86.775,86.775,3541
242,86.84,86.85,86.79,86.82,5674
243,86.82,86.87,86.82,86.84,3861
244,86.78,86.81,86.74,86.81,5300
245,86.825,86.85,86.79,86.79,5300
246,86.88,87,86.82,86.82,12805
247,86.83,86.88,86.83,86.88,3181
248,86.8,86.85,86.78,86.85,3300
249,86.81,86.81,86.7775,86.78,3050
250,86.773,86.82,86.76,86.82,3400
251,86.82,86.83,86.77,86.8,6814
252,86.82,86.86,86.82,86.82,4700
253,86.84,86.85,86.78,86.82,4015
254,86.75,86.85,86.75,86.82,5642
255,86.83,86.83,86.75,86.75,5700
256,86.83,86.85,86.8247,86.84,7101
257,86.84,86.84,86.7926,86.81,4772
258,86.77,86.82,86.765,86.81,4656
259,86.788,86.788,86.74,86.76,3361
260,86.85,86.85,86.7775,86.78,4775
261,86.87,86.88,86.84,86.86,3944
262,86.92,86.945,86.85,86.87,4861
263,86.87,86.95,86.87,86.91,6059
264,86.77,86.87,86.77,86.87,5748
265,86.8,86.81,86.77,86.77,2350
266,86.8,86.83,86.78,86.81,2650
267,86.785,86.8,86.785,86.79,2992
268,86.79,86.8,86.775,86.79,3865
269,86.79,86.79,86.745,86.79,6048
270,86.79,86.8,86.76,86.8,2824
271,86.76,86.8,86.75,86.78,5792
272,86.71,86.78,86.7,86.77,4729
273,86.65,86.7,86.6,86.7,6660
274,86.69,86.71,86.62,86.64,7153
275,86.7001,86.73,86.67,86.7,6670
276,86.78,86.81,86.73,86.73,5686
277,86.77,86.81,86.77,86.79,4799
278,86.71,86.76,86.71,86.76,5800
279,86.72,86.74,86.706,86.706,3750
280,86.76,86.76,86.69,86.72,2800
281,86.7501,86.78,86.73,86.74,5579
282,86.845,86.845,86.74,86.75,7629
283,86.81,86.85,86.8,86.83,3321
284,86.83,86.84,86.81,86.83,3500
285,86.84,86.85,86.79,86.83,6700
286,86.88,86.88,86.85,86.85,3057
287,86.83,86.9,86.83,86.87,3915
288,86.82,86.85,86.79,86.83,2600
289,86.84,86.85,86.82,86.82,2800
290,86.79,86.845,86.79,86.84,4800
291,86.85,86.88,86.82,86.82,4064
292,86.88,86.89,86.85,86.86,3604
293,86.94,86.94,86.86,86.88,5782
294,86.95,86.97,86.92,86.94,10520
295,86.9,86.96,86.875,86.96,16113
296,86.85,86.9,86.85,86.89,9362
297,86.84,86.88,86.83,86.85,4700
298,86.9,86.9,86.83,86.83,3460
299,86.93,86.93,86.9,86.9,4353
300,86.87,86.95,86.87,86.94,9373
301,86.87,86.91,86.87,86.875,4521
302,86.855,86.9,86.83,86.8761,10078
303,86.87,86.89,86.861,86.87,2995
304,86.905,86.91,86.865,86.88,11098
305,86.87,86.96,86.86,86.92,10344
306,86.84,86.88,86.81,86.87,11402
307,86.85,86.85,86.8,86.82,1800
308,86.88,86.89,86.83,86.83,3698
309,86.93,86.94,86.89,86.89,6137
310,86.92,86.94,86.91,86.94,1570
311,87,87,86.93,86.93,4232
312,87.1836,87.1902,87.02,87.02,6891
313,87.2,87.21,87.1653,87.1853,7867
314,87.31,87.31,87.21,87.2299,7047
315,87.25,87.32,87.25,87.31,4346
316,87.21,87.27,87.185,87.27,8635
317,87.15,87.21,87.13,87.21,2378
318,87.13,87.165,87.1,87.16,14913
319,87.16,87.17,87.12,87.12,23549
320,87.11,87.17,87.1,87.16,16616
321,87.19,87.19,87.1,87.11,9259
322,87.22,87.23,87.14,87.17,11203
323,87.25,87.26,87.21,87.21,5427
324,87.35,87.4,87.26,87.26,15253
325,87.35,87.4,87.35,87.36,4988
326,87.35,87.37,87.3122,87.37,3860
327,87.29,87.36,87.2583,87.3414,12477
328,87.29,87.3,87.27,87.29,9283
329,87.37,87.37,87.3,87.3,5674
330,87.34,87.39,87.33,87.3601,5786
331,87.3699,87.38,87.35,87.35,5485
332,87.45,87.47,87.36,87.37,11903
333,87.48,87.48,87.43,87.45,8697
334,87.48,87.48,87.45,87.46,6907
335,87.5,87.5,87.47,87.47,5844
336,87.465,87.5,87.45,87.5,7069
337,87.5,87.51,87.47,87.48,8808
338,87.52,87.53,87.47,87.5,9603
339,87.54,87.54,87.5,87.51,6340
340,87.6,87.62,87.54,87.54,19151
341,87.57,87.6,87.54,87.6,18370
342,87.57,87.58,87.55,87.56,4991
343,87.65,87.66,87.56,87.56,12302
344,87.68,87.72,87.64,87.64,15612
345,87.6,87.68,87.6,87.68,6558
346,87.62,87.68,87.6,87.6,10580
347,87.66,87.68,87.57,87.61,16110
348,87.71,87.71,87.63,87.64,8424
349,87.6,87.72,87.585,87.715,16832
350,87.495,87.6,87.485,87.59,19280
351,87.56,87.56,87.5,87.5,14620
352,87.495,87.57,87.48,87.55,10826
353,87.53,87.54,87.48,87.5,9199
354,87.49,87.53,87.46,87.53,8182
355,87.5,87.51,87.49,87.49,2800
356,87.505,87.54,87.48,87.49,6376
357,87.43,87.52,87.43,87.52,15357
358,87.43,87.46,87.4299,87.43,4258
359,87.4362,87.45,87.37,87.43,22179
360,87.44,87.44,87.39,87.43,6175
361,87.44,87.46,87.42,87.43,25564
362,87.46,87.46,87.43,87.45,12018
363,87.52,87.54,87.45,87.45,12423
364,87.5,87.53,87.5,87.5141,7670
365,87.5,87.52,87.49,87.49,11031
366,87.5,87.5,87.45,87.4932,19533
367,87.55,87.565,87.49,87.5,10167
368,87.54,87.57,87.53,87.54,6878
369,87.505,87.56,87.5,87.55,26545
370,87.465,87.515,87.46,87.5,13726
371,87.49,87.49,87.44,87.46,9946
372,87.51,87.55,87.495,87.5,10022
373,87.45,87.52,87.45,87.51,10636
374,87.53,87.54,87.46,87.46,23107
375,87.42,87.52,87.4,87.52,13806
376,87.455,87.46,87.385,87.41,14941
377,87.42,87.47,87.41,87.47,11181
378,87.405,87.425,87.4,87.42,12908
379,87.42,87.43,87.39,87.4,16991
380,87.4,87.42,87.38,87.42,26054
381,87.43,87.44,87.38,87.4,19235
382,87.49,87.49,87.44,87.44,14305
383,87.48,87.5,87.47,87.49,21281
384,87.51,87.53,87.47,87.475,22992
385,87.51,87.53,87.5,87.52,22788
386,87.52,87.55,87.51,87.51,53583
387,87.485,87.53,87.46,87.53,39431
388,87.49,87.51,87.45,87.48,52863
389,87.52,87.54,87.49,87.5,51729
a1445261460,85.94,86.35,85.88,86.27,50258
1,85.87,86.2,85.75,85.93,12030
2,85.87,86.06,85.87,85.87,7655
3,86.04,86.09,85.81,85.87,8804
4,86.1,86.19,85.99,86.01,29647
5,86.19,86.28,86.01,86.1,13129
6,86.4,86.47,86.2,86.21,13866
7,86.1,86.4,86.1,86.4,16490
8,86.06,86.12,86.04,86.12,23501
9,85.69,86.06,85.66,86.06,45553
10,85.67,85.73,85.6,85.71,19757
11,85.57,85.68,85.56,85.67,14463
12,85.85,85.85,85.59,85.59,18142
13,85.79,85.86,85.79,85.84,12238
14,85.835,85.86,85.79,85.8,10000
15,85.89,85.9,85.78,85.845,14419
16,86.08,86.08,85.86,85.86,9950
17,86.18,86.2,86.06,86.07,13533
18,86.23,86.29,86.18,86.18,14381
19,86.33,86.33,86.23,86.23,7321
20,86.2903,86.33,86.28,86.31,13134
21,86.32,86.32,86.27,86.3,18842
22,86.45,86.45,86.33,86.36,15532
23,86.34,86.46,86.34,86.45,6363
24,86.24,86.36,86.24,86.34,17504
25,86.05,86.23,86.026,86.23,6000
26,85.92,86.07,85.92,86.07,9865
27,85.93,85.95,85.9,85.94,13580
28,85.93,85.99,85.92,85.9499,6723
29,85.92,85.95,85.87,85.95,14648
30,85.8,85.92,85.8,85.89,8341
31,85.78,85.84,85.78,85.81,9705
32,85.64,85.76,85.64,85.76,5100
33,85.63,85.68,85.6,85.64,9879
34,85.63,85.64,85.61,85.64,9495
35,85.62,85.65,85.61,85.63,5449
36,85.55,85.63,85.5,85.62,10892
37,85.58,85.61,85.51,85.54,13411
38,85.62,85.62,85.47,85.59,26592
39,85.57,85.62,85.55,85.6,8026
40,85.46,85.53,85.37,85.51,19485
41,85.51,85.55,85.47,85.47,5263
42,85.62,85.73,85.53,85.53,9694
43,85.68,85.68,85.6,85.63,7209
44,85.78,85.94,85.68,85.68,20015
45,85.6,85.78,85.6,85.77,10543
46,85.51,85.61,85.42,85.6,20894
47,85.53,85.65,85.45,85.52,14041
48,85.5,85.5,85.46,85.48,6486
49,85.32,85.48,85.32,85.48,8290
50,85.376,85.42,85.306,85.35,9393
51,85.35,85.46,85.35,85.4,6202
52,85.31,85.35,85.3,85.34,10893
53,85.31,85.33,85.27,85.31,13112
54,85.2,85.31,85.2,85.31,8583
55,85.17,85.22,85.15,85.2,7003
56,85.34,85.34,85.12,85.16,10656
57,85.31,85.32,85.25,85.31,6801
58,85.25,85.29,85.24,85.29,6976
59,85.21,85.27,85.21,85.24,6091
60,85.17,85.19,85.12,85.19,4432
61,85.29,85.3,85.14,85.14,5479
62,85.35,85.4,85.32,85.34,2707
63,85.1801,85.39,85.16,85.36,6561
64,85.15,85.23,85.11,85.19,3603
65,85.02,85.15,85.02,85.15,4767
66,84.92,85.09,84.87,85.02,12715
67,85.08,85.1,84.92,84.92,3300
68,85.21,85.21,85.1,85.12,3400
69,85.0562,85.17,85.05,85.17,3171
70,85.08,85.14,85.07,85.09,2706
71,85.05,85.07,85.04,85.07,700
72,85.12,85.16,85.04,85.04,3402
73,85.21,85.31,85.14,85.15,5951
74,85.26,85.26,85.18,85.2,1400
75,85.2,85.28,85.17,85.21,3900
76,85.18,85.2495,85.12,85.24,4562
77,85.1,85.19,85.1,85.16,2301
78,85.04,85.099,85.04,85.099,1385
79,85.07,85.07,84.99,85.04,5572
80,85.015,85.09,85.015,85.05,3100
81,85.02,85.05,84.99,85.02,1400
82,85.14,85.18,85.04,85.05,3000
83,85.1,85.16,85.08,85.15,2053
84,85.05,85.0965,84.98,85.0965,4134
85,84.98,85.01,84.95,85.01,3470
86,84.91,84.97,84.91,84.97,3071
87,84.94,84.98,84.91,84.91,5503
88,84.913,84.9399,84.889,84.9,3910
89,84.95,84.95,84.87,84.94,3594
90,84.965,84.98,84.95,84.97,2400
91,84.87,85.01,84.87,84.95,3491
92,84.79,84.94,84.79,84.89,17724
93,84.94,84.96,84.72,84.77,9859
94,84.98,85.03,84.91,84.91,3803
95,84.9,85.01,84.84,85.01,4316
96,84.96,84.96,84.89,84.89,800
97,84.94,84.98,84.92,84.97,4100
98,84.93,84.97,84.89,84.94,2766
99,84.98,85,84.95,84.96,3646
100,84.89,84.96,84.88,84.96,2521
101,84.89,84.94,84.87,84.92,2955
102,84.97,84.97,84.82,84.85,3401
103,84.92,84.98,84.92,84.94,1995
104,84.94,84.99,84.93,84.99,800
105,85.01,85.05,84.94,84.96,4948
106,85.01,85.017,84.96,84.97,3025
107,84.93,85,84.91,84.988,6850
108,85.02,85.05,84.94,84.96,8800
109,84.97,85.05,84.97,85.01,3250
110,84.95,85.01,84.91,85.01,5000
111,84.93,84.98,84.91,84.95,4900
112,84.84,84.95,84.81,84.95,5534
113,84.8,84.87,84.73,84.83,18097
114,84.7999,84.84,84.75,84.8,10867
115,84.65,84.77,84.63,84.75,9450
116,84.62,84.7,84.62,84.67,4200
117,84.62,84.72,84.59,84.61,26905
118,84.725,84.73,84.625,84.63,4660
119,84.755,84.77,84.66,84.7399,6000
120,84.8,84.84,84.72,84.75,13849
121,84.78,84.88,84.74,84.78,27880
122,84.8,84.83,84.73,84.79,13238
123,84.75,84.83,84.75,84.79,12658
124,84.73,84.78,84.71,84.78,8367
125,84.74,84.74,84.66,84.7,6500
126,84.62,84.725,84.62,84.725,10030
127,84.6,84.63,84.53,84.62,18488
128,84.69,84.7,84.6,84.6,5955
129,84.67,84.71,84.64,84.69,6910
130,84.67,84.68,84.56,84.655,12687
131,84.68,84.73,84.61,84.68,14301
132,84.61,84.72,84.6,84.68,16405
133,84.645,84.7,84.59,84.595,16635
134,84.64,84.71,84.61,84.64,91475
135,84.52,84.64,84.52,84.64,52812
136,84.4399,84.52,84.43,84.52,17954
137,84.525,84.57,84.42,84.43,15773
138,84.57,84.57,84.52,84.55,5739
139,84.5,84.58,84.5,84.56,13981
140,84.585,84.59,84.47,84.5,15238
141,84.63,84.65,84.59,84.6,5000
142,84.56,84.65,84.55,84.63,17786
143,84.545,84.64,84.545,84.59,17296
144,84.52,84.6,84.52,84.545,34137
145,84.49,84.56,84.49,84.52,29391
146,84.5,84.51,84.49,84.5,4800
147,84.48,84.52,84.47,84.52,13250
148,84.48,84.48,84.4,84.45,9161
149,84.43,84.53,84.4,84.485,29172
150,84.47,84.5,84.43,84.43,9699
151,84.68,84.69,84.43,84.475,42379
152,84.6,84.68,84.55,84.68,9075
153,84.62,84.66,84.595,84.595,2312
154,84.59,84.625,84.57,84.61,4930
155,84.55,84.61,84.55,84.59,3050
156,84.58,84.58,84.54,84.54,800
157,84.64,84.68,84.58,84.58,3233
158,84.7125,84.7125,84.64,84.65,1400
159,84.79,84.83,84.73,84.73,6265
160,84.825,84.835,84.79,84.79,3499
161,84.9,84.94,84.8,84.82,15091
162,84.86,84.9,84.85,84.9,3600
163,84.798,84.86,84.76,84.86,9989
164,84.75,84.81,84.75,84.78,2000
165,84.83,84.83,84.76,84.76,537
166,84.8,84.83,84.79,84.83,683
167,84.84,84.84,84.79,84.8,3401
168,84.82,84.83,84.81,84.82,2300
169,84.83,84.86,84.83,84.83,2800
170,84.89,84.89,84.83,84.83,2943
171,84.91,84.96,84.91,84.91,3744
172,84.8903,84.93,84.88,84.93,3275
173,84.93,84.93,84.87,84.87,4300
174,84.9,84.906,84.85,84.906,2904
175,84.94,84.94,84.87,84.9,1000
176,84.89,84.93,84.87,84.93,2803
177,84.96,84.97,84.9,84.91,3150
178,85.0797,85.0797,84.99,84.99,2993
179,85.11,85.12,85.04,85.04,1900
180,85.08,85.11,85.07,85.09,1800
181,85.07,85.1,85.07,85.1,1100
182,85.02,85.1099,85.02,85.05,2387
183,84.99,85.02,84.95,85.02,2225
184,85.01,85.01,84.97,84.9801,1200
185,85.04,85.05,85.03,85.03,2136
186,85.01,85.01,84.98,84.99,5097
187,85.04,85.06,85,85,5998
188,85.08,85.08,85,85.055,6000
189,85.01,85.06,85,85.05,4302
190,85,85.02,84.96,84.98,7923
191,84.86,85.03,84.86,85.01,3525
192,84.89,84.92,84.87,84.89,7400
193,84.86,84.908,84.86,84.89,3824
194,84.86,84.89,84.86,84.87,6657
195,84.85,84.88,84.84,84.88,3450
196,84.77,84.85,84.77,84.84,12992
197,84.82,84.82,84.77,84.77,6500
198,84.87,84.88,84.82,84.82,9735
199,84.93,84.96,84.85,84.85,2543
200,84.9,84.92,84.89,84.92,1454
201,84.93,84.93,84.89,84.9,800
202,84.88,84.95,84.88,84.95,3540
203,84.93,84.95,84.86,84.86,901
204,84.94,84.94,84.88,84.93,2039
205,84.92,84.92,84.9,84.92,933
206,84.91,84.97,84.9,84.94,5000
207,84.93,84.93,84.91,84.91,600
208,84.77,84.93,84.76,84.92,10743
209,84.77,84.79,84.76,84.76,1884
210,84.83,84.83,84.79,84.8,1800
211,84.85,84.86,84.82,84.82,1682
212,84.82,84.85,84.82,84.85,3352
213,84.83,84.84,84.81,84.81,1754
214,84.79,84.82,84.79,84.82,4139
215,84.76,84.8,84.75,84.78,13264
216,84.68,84.76,84.68,84.76,14711
217,84.66,84.75,84.64,84.7,12391
218,84.61,84.675,84.61,84.66,10228
219,84.58,84.61,84.54,84.61,7200
220,84.58,84.6,84.56,84.58,7795
221,84.5406,84.58,84.5406,84.58,4249
222,84.56,84.6,84.55,84.55,9018
223,84.48,84.55,84.48,84.55,4797
224,84.43,84.5,84.43,84.47,1805
225,84.4503,84.49,84.45,84.48,3349
226,84.44,84.5,84.44,84.48,5177
227,84.32,84.44,84.27,84.44,14200
228,84.28,84.38,84.25,84.31,10413
229,84.22,84.25,84.19,84.25,14116
230,84.28,84.35,84.21,84.215,9080
231,84.15,84.3,84.12,84.256,4766
232,84.19,84.2,84.12,84.12,8500
233,84.15,84.19,84.12,84.19,4527
234,84.18,84.22,84.14,84.15,7269
235,84.2,84.23,84.16,84.18,15800
236,84.19,84.21,84.17,84.21,8200
237,84.2,84.22,84.2,84.21,4655
238,84.18,84.21,84.17,84.2,4405
239,84.2,84.22,84.12,84.16,7548
240,84.16,84.28,84.11,84.21,14514
241,84.22,84.24,84.16,84.16,11025
242,84.21,84.25,84.21,84.23,2500
243,84.2,84.26,84.2,84.23,4400
244,84.26,84.2945,84.2,84.2,7563
245,84.27,84.28,84.24,84.26,5081
246,84.32,84.35,84.23,84.25,4373
247,84.28,84.35,84.26,84.35,4353
248,84.32,84.38,84.28,84.28,3830
249,84.37,84.41,84.32,84.32,5164
250,84.4,84.41,84.37,84.37,2400
251,84.45,84.46,84.42,84.42,2700
252,84.4,84.45,84.39,84.45,4000
253,84.4532,84.47,84.39,84.39,1427
254,84.42,84.46,84.42,84.44,2550
255,84.413,84.49,84.4,84.41,6503
256,84.44,84.44,84.3648,84.4,4370
257,84.48,84.51,84.4771,84.4771,4025
258,84.457,84.49,84.44,84.49,2660
259,84.4,84.43,84.4,84.42,1401
260,84.3401,84.4,84.3401,84.39,3350
261,84.38,84.4,84.35,84.35,1800
262,84.41,84.43,84.37,84.38,3000
263,84.41,84.44,84.38,84.38,1237
264,84.41,84.46,84.41,84.45,1000
265,84.37,84.4,84.35,84.4,1200
266,84.4261,84.46,84.42,84.42,1835
267,84.44,84.48,84.44,84.46,3067
268,84.402,84.47,84.4,84.43,5784
269,84.41,84.41,84.365,84.4,4697
270,84.52,84.56,84.37,84.405,10429
271,84.5,84.55,84.485,84.54,4076
272,84.45,84.51,84.45,84.5,3582
273,84.5,84.52,84.41,84.41,4100
274,84.49,84.5,84.45,84.5,3535
275,84.48,84.5,84.44,84.495,2900
276,84.495,84.53,84.47,84.49,1916
277,84.4,84.51,84.39,84.495,7300
278,84.39,84.47,84.39,84.42,4000
279,84.4,84.43,84.4,84.4053,6127
280,84.35,84.45,84.35,84.42,5575
281,84.35,84.38,84.34,84.36,2180
282,84.39,84.39,84.34,84.35,2000
283,84.43,84.48,84.39,84.39,2700
284,84.43,84.45,84.35,84.42,3300
285,84.39,84.48,84.38,84.47,3101
286,84.36,84.41,84.36,84.41,3900
287,84.33,84.3782,84.33,84.35,1484
288,84.41,84.41,84.33,84.33,2894
289,84.41,84.43,84.4,84.41,2000
290,84.41,84.44,84.39,84.4,3300
291,84.4,84.46,84.4,84.43,3200
292,84.34,84.41,84.34,84.41,3971
293,84.37,84.37,84.33,84.33,1534
294,84.33,84.41,84.33,84.39,4695
295,84.36,84.39,84.325,84.35,6214
296,84.34,84.35,84.32,84.33,800
297,84.23,84.33,84.2,84.33,4629
298,84.25,84.26,84.24,84.24,1100
299,84.28,84.28,84.24,84.24,2100
300,84.33,84.35,84.27,84.27,2849
301,84.36,84.37,84.3282,84.3282,1823
302,84.35,84.38,84.34,84.35,1400
303,84.4,84.4,84.35,84.37,2400
304,84.39,84.41,84.38,84.38,3565
305,84.46,84.47,84.4,84.41,4785
306,84.46,84.47,84.43,84.46,4103
307,84.44,84.47,84.41,84.45,7893
308,84.43,84.44,84.41,84.44,1191
309,84.38,84.43,84.38,84.43,1714
310,84.45,84.45,84.4,84.41,3988
311,84.48,84.49,84.43,84.45,3965
312,84.46,84.49,84.45,84.48,2251
313,84.46,84.485,84.44,84.46,2030
314,84.428,84.45,84.38,84.45,5502
315,84.4,84.425,84.38,84.425,2214
316,84.39,84.4,84.38,84.39,1100
317,84.3904,84.405,84.37,84.395,2003
318,84.36,84.42,84.36,84.38,4831
319,84.31,84.37,84.31,84.365,3271
320,84.3589,84.3589,84.3,84.32,1615
321,84.44,84.44,84.3301,84.3301,1570
322,84.47,84.485,84.43,84.445,3028
323,84.46,84.48,84.45,84.465,1761
324,84.41,84.465,84.41,84.46,1829
325,84.42,84.44,84.41,84.425,1100
326,84.4199,84.43,84.38,84.42,5028
327,84.4,84.46,84.4,84.42,3170
328,84.42,84.44,84.41,84.41,1800
329,84.445,84.45,84.41,84.43,2000
330,84.4,84.44,84.4,84.44,3401
331,84.44,84.45,84.41,84.41,2894
332,84.44,84.47,84.43,84.46,7950
333,84.44,84.4789,84.405,84.45,7854
334,84.49,84.506,84.435,84.44,10369
335,84.53,84.54,84.49,84.5,11208
336,84.63,84.63,84.52,84.522,4440
337,84.585,84.64,84.56,84.63,6042
338,84.55,84.59,84.55,84.5701,3300
339,84.54,84.54,84.46,84.53,7648
340,84.49,84.54,84.4871,84.52,3736
341,84.57,84.57,84.47,84.51,5775
342,84.58,84.62,84.55,84.59,3600
343,84.58,84.61,84.58,84.59,5927
344,84.6,84.61,84.59,84.59,3026
345,84.63,84.65,84.59,84.6,4455
346,84.62,84.63,84.6,84.62,4961
347,84.67,84.67,84.62,84.63,5727
348,84.6639,84.73,84.66,84.68,9010
349,84.66,84.72,84.645,84.67,5618
350,84.71,84.72,84.66,84.67,3973
351,84.75,84.78,84.72,84.73,5663
352,84.72,84.77,84.69,84.76,4286
353,84.78,84.79,84.72,84.72,9116
354,84.77,84.82,84.74,84.78,8561
355,84.84,84.88,84.77,84.8,9796
356,84.92,84.93,84.82,84.84,11818
357,84.99,84.99,84.93,84.93,12238
358,84.915,84.99,84.915,84.985,9537
359,84.78,84.91,84.74,84.91,23596
360,84.78,84.8,84.73,84.77,13533
361,84.75,84.78,84.73,84.75,8811
362,84.76,84.76,84.72,84.74,7500
363,84.7435,84.76,84.72,84.74,10884
364,84.76,84.77,84.73,84.74,6610
365,84.8171,84.89,84.77,84.77,9174
366,84.81,84.86,84.81,84.83,7484
367,84.84,84.845,84.79,84.8,8287
368,84.82,84.845,84.8,84.845,7868
369,84.8,84.83,84.79,84.81,8910
370,84.8,84.8,84.75,84.79,8778
371,84.9,84.91,84.8,84.8,11498
372,84.89,84.91,84.85,84.89,13540
373,84.89,84.9,84.88,84.9,6808
374,84.86,84.92,84.84,84.89,24463
375,84.8801,84.89,84.83,84.88,18140
376,84.86,84.93,84.86,84.89,38502
377,84.885,84.92,84.86,84.87,21661
378,84.92,84.93,84.86,84.88,8710
379,84.94,84.95,84.91,84.92,12364
380,84.89,84.94,84.87,84.94,11001
381,84.92,84.93,84.89,84.89,10729
382,84.96,84.97,84.905,84.9104,11845
383,84.99,84.99,84.9504,84.9504,11803
384,84.94,85.02,84.93,84.9804,28089
385,84.95,84.95,84.89,84.9304,28021
386,84.89,84.97,84.89,84.95,24091
387,84.83,84.91,84.77,84.89,56395
388,84.785,84.85,84.76,84.82,50694
389,84.81,84.84,84.75,84.78,64382
a1445347800,84.81,84.81,84.53,84.57,34902
1,84.44,84.79,84.44,84.79,10008
2,84.36,84.42,84.26,84.41,5785
3,84.4599,84.46,84.3001,84.4,2364
4,84.49,84.49,84.43,84.46,5980
5,84.73,84.73,84.54,84.54,7000
6,84.65,84.73,84.59,84.73,37719
7,84.5499,84.74,84.54,84.65,11563
8,84.64,84.7,84.55,84.56,8571
9,84.61,84.7,84.42,84.59,32454
10,84.73,84.73,84.51,84.67,9827
11,84.75,84.94,84.7,84.731,8828
12,84.78,84.9,84.725,84.76,18925
13,84.74,84.81,84.71,84.78,7760
14,84.99,85,84.735,84.75,20763
15,84.98,84.98,84.845,84.96,5972
16,85.05,85.07,84.96,84.98,9300
17,84.9,85.12,84.9,85.03,42299
18,84.9,84.91,84.82,84.895,7267
19,84.91,84.93,84.83,84.89,6143
20,85.1,85.11,84.89,84.89,7928
21,85.31,85.33,85.12,85.13,14839
22,85.23,85.31,85.2,85.31,11929
23,85.06,85.26,85.06,85.26,5490
24,85.13,85.18,85.005,85.005,3350
25,85.09,85.14,85.06,85.11,4100
26,84.87,85.05,84.87,85.04,60583
27,84.85,84.96,84.83,84.91,5997
28,84.93,84.98,84.8775,84.88,3652
29,85.18,85.23,84.96,84.96,5318
30,85.25,85.27,85.17,85.18,3800
31,85.224,85.23,85.16,85.162,1900
32,85.11,85.18,85.09,85.15,5600
33,85.1196,85.12,85.1,85.12,1033
34,85.125,85.16,85.1,85.16,4198
35,85.36,85.39,85.12,85.12,5700
36,85.32,85.32,85.21,85.32,5702
37,85.3,85.3,85.23,85.29,1700
38,85.46,85.46,85.32,85.32,5101
39,85.4,85.47,85.35,85.47,9040
40,85.38,85.47,85.38,85.38,3380
41,85.42,85.54,85.4,85.41,6905
42,85.52,85.57,85.43,85.43,11650
43,85.5,85.56,85.5,85.525,33596
44,85.5,85.55,85.5,85.52,3186
45,85.42,85.506,85.42,85.49,3255
46,85.37,85.43,85.37,85.4,1800
47,85.26,85.37,85.26,85.37,2380
48,85.3,85.31,85.26,85.29,6158
49,85.22,85.315,85.14,85.3,10050
50,85.04,85.18,84.99,85.18,8093
51,85.16,85.2,85,85.02,40678
52,85.04,85.18,85.04,85.16,5882
53,85,85.04,84.95,85.01,8605
54,84.84,84.98,84.815,84.98,5700
55,84.91,84.945,84.84,84.84,11760
56,85.105,85.11,84.915,84.93,23436
57,84.93,85.125,84.87,85.12,9900
58,84.97,85.0072,84.925,84.94,6700
59,84.88,84.98,84.88,84.96,11886
60,84.9,84.92,84.83,84.87,16868
61,85.02,85.045,84.89,84.91,14702
62,85.024,85.05,84.93,85.035,7700
63,84.98,85.08,84.96,85.03,4500
64,84.96,84.99,84.9,84.99,3928
65,84.98,84.99,84.96,84.96,16956
66,84.98,84.99,84.94,84.975,17166
67,84.96,84.99,84.93,84.99,11250
68,84.99,84.99,84.96,84.96,13192
69,85.086,85.12,84.97,84.985,17415
70,85.261,85.29,85.0958,85.0958,6500
71,85.395,85.42,85.29,85.3,8442
72,85.49,85.55,85.43,85.43,5381
73,85.58,85.62,85.51,85.51,2850
74,85.48,85.64,85.48,85.59,4000
75,85.54,85.64,85.5,85.5,4700
76,85.61,85.65,85.57,85.57,2008
77,85.58,85.62,85.53,85.62,3200
78,85.41,85.605,85.41,85.6,2000
79,85.37,85.45,85.37,85.43,1787
80,85.37,85.43,85.37,85.37,3779
81,85.53,85.53,85.41,85.41,2700
82,85.42,85.51,85.33,85.51,3174
83,85.41,85.435,85.4,85.4,1900
84,85.28,85.42,85.25,85.42,3200
85,85.15,85.32,85.15,85.28,3894
86,85.21,85.23,85.17,85.17,1800
87,85.21,85.26,85.2,85.26,2300
88,85.14,85.2,85.1201,85.18,9021
89,85.21,85.21,85.12,85.18,6100
90,85.285,85.3,85.23,85.23,7482
91,85.26,85.3056,85.2,85.3,4495
92,85.22,85.26,85.18,85.26,10862
93,85.22,85.25,85.2,85.2,1700
94,85.19,85.26,85.15,85.24,5303
95,85.07,85.19,84.96,85.19,19561
96,84.99,85.1,84.99,85.08,4100
97,85.03,85.04,84.94,84.98,4362
98,84.97,85.01,84.96,85.01,1600
99,84.91,84.94,84.865,84.94,8527
100,84.94,84.94,84.89,84.9024,10992
101,84.9,84.93,84.88,84.93,2346
102,84.78,84.9,84.75,84.9,7788
103,84.72,84.795,84.665,84.795,5950
104,84.68,84.73,84.63,84.73,5357
105,84.74,84.75,84.69,84.69,2900
106,84.585,84.71,84.5676,84.71,5454
107,84.64,84.66,84.565,84.565,8300
108,84.5076,84.62,84.5076,84.62,4601
109,84.6,84.6255,84.48,84.48,7900
110,84.74,84.79,84.5901,84.6,12110
111,84.701,84.734,84.65,84.734,6785
112,84.69,84.69,84.59,84.65,6560
113,84.65,84.71,84.63,84.71,1700
114,84.78,84.78,84.64,84.67,2614
115,84.71,84.77,84.695,84.76,4107
116,84.785,84.81,84.68,84.71,5500
117,84.8,84.84,84.78,84.78,28674
118,84.715,84.83,84.71,84.8,8300
119,84.72,84.76,84.7,84.7,9000
120,84.73,84.81,84.72,84.725,14000
121,84.66,84.73,84.6076,84.73,4600
122,84.65,84.69,84.6,84.65,1800
123,84.67,84.67,84.5968,84.62,3389
124,84.54,84.65,84.53,84.65,2600
125,84.55,84.59,84.54,84.55,2635
126,84.43,84.54,84.43,84.52,3740
127,84.55,84.55,84.43,84.43,6548
128,84.61,84.61,84.505,84.54,8602
129,84.67,84.7,84.63,84.63,5117
130,84.75,84.77,84.685,84.685,4798
131,84.8,84.8,84.74,84.75,4263
132,84.81,84.84,84.73,84.76,3500
133,84.84,84.94,84.82,84.82,3761
134,84.94,84.95,84.84,84.85,3500
135,84.9,84.97,84.88,84.95,1700
136,84.88,84.88,84.84,84.88,1100
137,84.96,84.98,84.88,84.89,4348
138,84.83,84.99,84.83,84.96,4950
139,84.615,84.83,84.615,84.81,9172
140,84.555,84.63,84.53,84.615,2100
141,84.58,84.6,84.525,84.57,4728
142,84.52,84.56,84.47,84.56,3926
143,84.47,84.51,84.42,84.51,1600
144,84.4897,84.4897,84.46,84.46,2089
145,84.49,84.51,84.45,84.49,4295
146,84.455,84.47,84.41,84.47,3351
147,84.49,84.49,84.41,84.44,9512
148,84.5409,84.565,84.52,84.52,4400
149,84.6,84.6,84.534,84.5696,3970
150,84.58,84.616,84.57,84.58,5531
151,84.61,84.64,84.55,84.62,8425
152,84.61,84.64,84.54,84.62,6555
153,84.49,84.63,84.49,84.62,4200
154,84.5,84.57,84.47,84.48,7937
155,84.57,84.6,84.51,84.51,2576
156,84.68,84.68,84.57,84.57,2250
157,84.71,84.77,84.68,84.68,3600
158,84.72,84.76,84.72,84.75,950
159,84.795,84.81,84.74,84.75,3600
160,84.92,84.92,84.82,84.85,3200
161,84.855,84.915,84.79,84.91,3100
162,84.84,84.9,84.84,84.9,2069
163,84.8,84.89,84.78,84.86,3742
164,84.825,84.83,84.805,84.805,600
165,84.87,84.9,84.84,84.84,6449
166,84.91,84.91,84.8679,84.8679,715
167,84.89,84.91,84.82,84.91,1900
168,84.83,84.86,84.83,84.86,418
169,84.75,84.845,84.75,84.845,1350
170,84.725,84.78,84.715,84.75,3548
171,84.65,84.73,84.64,84.7,4600
172,84.59,84.67,84.59,84.65,2848
173,84.59,84.64,84.58,84.61,2193
174,84.61,84.68,84.61,84.62,3328
175,84.63,84.66,84.62,84.64,3400
176,84.64,84.64,84.58,84.64,5701
177,84.6,84.62,84.57,84.62,6261
178,84.63,84.64,84.59,84.61,3400
179,84.64,84.65,84.58,84.62,2800
180,84.66,84.66,84.61,84.62,1600
181,84.61,84.7,84.61,84.7,3704
182,84.61,84.63,84.54,84.62,3000
183,84.63,84.66,84.6101,84.63,3249
184,84.64,84.72,84.63,84.64,3000
185,84.62,84.66,84.6,84.61,3656
186,84.645,84.65,84.64,84.64,800
187,84.58,84.64,84.575,84.64,4453
188,84.57,84.5801,84.525,84.55,4637
189,84.53,84.61,84.5,84.58,4725
190,84.47,84.5199,84.47,84.5199,5400
191,84.53,84.53,84.48,84.48,2700
192,84.535,84.54,84.52,84.52,3071
193,84.495,84.54,84.45,84.54,10799
194,84.55,84.55,84.505,84.505,5150
195,84.52,84.53,84.49,84.52,2450
196,84.51,84.54,84.51,84.54,2515
197,84.48,84.54,84.48,84.54,1800
198,84.45,84.49,84.45,84.4805,4800
199,84.47,84.495,84.45,84.46,3900
200,84.5,84.53,84.49,84.49,5600
201,84.54,84.54,84.455,84.48,2901
202,84.5,84.53,84.46,84.52,4000
203,84.535,84.535,84.5,84.5,2100
204,84.51,84.54,84.49,84.53,10990
205,84.44,84.5,84.44,84.5,4641
206,84.45,84.475,84.4489,84.4489,3535
207,84.43,84.43,84.43,84.43,100
208,84.42,84.51,84.42,84.4315,6680
209,84.49,84.51,84.39,84.41,1400
210,84.46,84.49,84.46,84.49,2400
211,84.39,84.44,84.39,84.44,1300
212,84.42,84.42,84.39,84.41,3660
213,84.33,84.44,84.33,84.43,4103
214,84.35,84.37,84.32,84.36,4464
215,84.36,84.38,84.35,84.36,3077
216,84.3603,84.38,84.34,84.3782,4067
217,84.36,84.38,84.33,84.37,2200
218,84.36,84.39,84.33,84.35,7147
219,84.41,84.41,84.35,84.35,4004
220,84.36,84.43,84.33,84.42,2700
221,84.39,84.4,84.35,84.35,2800
222,84.42,84.43,84.38,84.39,4778
223,84.41,84.41,84.395,84.41,700
224,84.33,84.38,84.32,84.38,3812
225,84.35,84.35,84.31,84.31,7704
226,84.42,84.42,84.36,84.36,4174
227,84.43,84.44,84.37,84.39,8746
228,84.38,84.46,84.38,84.43,1845
229,84.4,84.425,84.375,84.38,3100
230,84.42,84.45,84.4,84.41,4350
231,84.3797,84.44,84.3797,84.42,2880
232,84.4,84.42,84.38,84.4,2300
233,84.39,84.39,84.375,84.38,2300
234,84.28,84.38,84.28,84.38,2150
235,84.27,84.31,84.27,84.295,8503
236,84.23,84.29,84.23,84.28,3957
237,84.16,84.23,84.16,84.22,3466
238,84.2,84.21,84.155,84.16,6602
239,84.172,84.19,84.15,84.19,3934
240,84.2,84.21,84.17,84.18,5609
241,84.17,84.21,84.15,84.2,4764
242,84.135,84.17,84.1,84.16,5026
243,84.145,84.15,84.1,84.13,10991
244,84.22,84.23,84.15,84.16,5487
245,84.28,84.29,84.24,84.25,3500
246,84.29,84.35,84.28,84.29,3729
247,84.245,84.3,84.24,84.28,3430
248,84.31,84.33,84.265,84.28,2500
249,84.24,84.31,84.24,84.31,1500
250,84.24,84.24,84.2,84.232,4043
251,84.22,84.25,84.2,84.25,4058
252,84.19,84.24,84.18,84.23,7146
253,84.16,84.18,84.14,84.17,3299
254,84.19,84.19,84.14,84.145,3900
255,84.17,84.18,84.155,84.16,4700
256,84.16,84.18,84.15,84.178,2889
257,84.1201,84.18,84.1201,84.17,8481
258,84.09,84.12,84.07,84.12,6376
259,84.09,84.11,84.08,84.08,7779
260,84.12,84.12,84.09,84.1,4940
261,84.0896,84.11,84.06,84.11,3381
262,84.15,84.16,84.11,84.12,5371
263,84.2,84.2,84.16,84.16,2200
264,84.19,84.21,84.16,84.19,5800
265,84.18,84.19,84.14,84.17,3798
266,84.09,84.18,84.09,84.18,6133
267,84.13,84.16,84.1,84.105,5781
268,84.15,84.17,84.1101,84.1101,9050
269,84.1,84.14,84.09,84.14,4085
270,84.09,84.14,84.09,84.09,6201
271,84.09,84.11,84.08,84.08,3200
272,84.1,84.15,84.09,84.1,5700
273,84.15,84.18,84.11,84.12,10606
274,84.16,84.2,84.135,84.15,12240
275,84.15,84.17,84.13,84.17,5300
276,84.1,84.13,84.07,84.13,7403
277,84.06,84.125,84.04,84.11,7025
278,84.07,84.09,84.06,84.07,7709
279,84.02,84.08,84.02,84.08,7500
280,84.07,84.09,84,84.0299,10677
281,84.06,84.1,84.02,84.0875,9200
282,84.085,84.09,84.06,84.06,6083
283,84.05,84.1,84.05,84.08,12101
284,84.04,84.115,84.03,84.06,12152
285,84.125,84.13,84.02,84.05,7705
286,84.05,84.14,84.05,84.14,5450
287,84.09,84.11,84.03,84.04,8922
288,84.06,84.1,84.05,84.07,5000
289,84.07,84.09,84.05,84.09,5302
290,84.04,84.07,84.03,84.07,6207
291,84,84.06,83.96,84.06,16550
292,84,84.04,83.98,83.99,5300
293,84,84.06,83.99,84.03,2700
294,84,84.03,84,84.02,3900
295,84.03,84.04,83.95,83.993,8823
296,83.99,84.0399,83.98,84.0399,4252
297,83.97,84.01,83.95,83.99,6721
298,84.05,84.06,83.98,83.98,6784
299,84.16,84.1701,84.05,84.06,25081
300,84.17,84.21,84.16,84.16,11600
301,84.25,84.26,84.1884,84.2,8297
302,84.21,84.25,84.2,84.24,7100
303,84.19,84.2,84.17,84.2,4654
304,84.24,84.2599,84.15,84.22,15618
305,84.21,84.24,84.21,84.23,4400
306,84.18,84.23,84.175,84.23,3322
307,84.21,84.22,84.17,84.17,2900
308,84.278,84.287,84.2,84.215,13629
309,84.29,84.295,84.26,84.29,9500
310,84.335,84.335,84.28,84.3,3350
311,84.44,84.47,84.33,84.33,5812
312,84.44,84.47,84.405,84.44,4684
313,84.39,84.45,84.38,84.43,4800
314,84.41,84.46,84.3899,84.39,38940
315,84.41,84.43,84.38,84.41,7025
316,84.55,84.55,84.41,84.41,21534
317,84.53,84.54,84.5101,84.53,3307
318,84.59,84.61,84.55,84.56,4530
319,84.51,84.58,84.51,84.58,4400
320,84.505,84.53,84.49,84.53,8300
321,84.49,84.51,84.47,84.51,6465
322,84.5,84.515,84.48,84.49,12200
323,84.51,84.55,84.5,84.51,12108
324,84.57,84.59,84.51,84.54,8955
325,84.5699,84.6,84.53,84.58,21296
326,84.54,84.56,84.54,84.5574,3463
327,84.56,84.58,84.54,84.55,7412
328,84.62,84.62,84.54,84.55,6681
329,84.63,84.66,84.61,84.61,5574
330,84.67,84.67,84.63,84.64,13224
331,84.68,84.71,84.67,84.67,7015
332,84.62,84.66,84.62,84.66,2700
333,84.64,84.65,84.6,84.62,6727
334,84.61,84.65,84.58,84.65,6085
335,84.6135,84.64,84.59,84.6,6145
336,84.58,84.61,84.555,84.6,5842
337,84.55,84.61,84.55,84.6,4541
338,84.645,84.65,84.59,84.59,8349
339,84.67,84.69,84.64,84.65,9690
340,84.7,84.71,84.67,84.6723,9310
341,84.75,84.76,84.67,84.7,10348
342,84.74,84.76,84.725,84.74,11159
343,84.71,84.74,84.67,84.73,4942
344,84.73,84.73,84.68,84.71,5917
345,84.69,84.74,84.68,84.715,5446
346,84.775,84.79,84.68,84.68,16517
347,84.82,84.84,84.73,84.76,16289
348,84.77,84.89,84.77,84.81,14800
349,84.84,84.86,84.78,84.79,5124
350,84.81,84.83,84.75,84.82,19599
351,84.84,84.85,84.785,84.8,12823
352,84.84,84.84,84.81,84.83,3400
353,84.94,84.94,84.85,84.85,24761
354,85.01,85.02,84.92,84.93,19636
355,85,85.02,84.97,84.99,10864
356,84.9801,85.01,84.97,84.99,11318
357,85.07,85.07,85,85,8884
358,85.07,85.09,85.03,85.04,13728
359,85.03,85.07,85.03,85.07,4963
360,85.01,85.05,84.98,85.03,10691
361,84.895,85.01,84.895,85.01,5360
362,84.92,84.93,84.87,84.91,9840
363,84.9,84.92,84.89,84.92,6007
364,84.92,84.95,84.9,84.9,8141
365,84.95,84.98,84.91,84.92,8739
366,84.89,84.93,84.86,84.93,5722
367,84.89,84.89,84.85,84.87,10056
368,84.89,84.9,84.86,84.88,22003
369,84.965,84.965,84.89,84.89,12063
370,85.015,85.02,84.94,84.96,18027
371,85.01,85.02,84.97,85.02,14876
372,84.98,85.03,84.97,85.01,9344
373,85.02,85.03,84.98,84.98,6320
374,85.02,85.07,85.01,85.02,11950
375,84.97,85.02,84.97,85.02,11100
376,84.9,84.99,84.89,84.99,13887
377,84.89,84.94,84.85,84.9,19244
378,84.79,84.93,84.79,84.89,33530
379,84.85,84.86,84.8,84.8,11271
380,84.89,84.9,84.85,84.85,10970
381,84.85,84.89,84.85,84.88,8443
382,84.82,84.86,84.815,84.85,25644
383,84.85,84.85,84.81,84.84,16933
384,84.875,84.89,84.85,84.85,30846
385,84.85,84.87,84.85,84.87,14906
386,84.84,84.87,84.83,84.86,22282
387,84.85,84.86,84.85,84.85,18376
388,84.88,84.88,84.85,84.855,29190
389,84.895,84.895,84.82,84.87,33514
390,84.89,84.94,84.78,84.89,98108
a1445434260,84.325,84.7,84.27,84.44,32153
1,84.1699,84.42,84.01,84.42,3987
2,84.17,84.31,84.17,84.17,1300
3,84.13,84.38,84.13,84.18,3100
4,84.14,84.21,84.05,84.11,5010
5,84.2,84.22,84.05,84.06,11094
6,84.19,84.32,84.12,84.17,4162
7,84.23,84.39,84.11,84.22,9207
8,84.27,84.27,84.19,84.2305,6549
9,84.2,84.37,84.2,84.22,3627
10,84.2,84.28,84.106,84.21,5846
11,84.255,84.255,84.13,84.13,6692
12,84.2,84.225,84.15,84.19,5326
13,84.22,84.29,84.15,84.17,6064
14,84.205,84.24,84.15,84.21,5286
15,84.31,84.31,84.23,84.24,4100
16,84.12,84.29,84.1,84.29,11686
17,84.17,84.18,84.1,84.115,15607
18,84.14,84.19,84.08,84.14,12002
19,84.16,84.22,84.1,84.103,18975
20,84.1,84.17,84.08,84.166,20248
21,84.06,84.14,84.03,84.1,15164
22,83.92,84.07,83.92,84.01,20663
23,83.91,83.94,83.8,83.92,11828
24,83.88,83.96,83.83,83.9,25969
25,83.67,83.88,83.64,83.88,8095
26,83.8,83.83,83.678,83.678,9753
27,83.78,83.89,83.77,83.8,7725
28,83.82,83.86,83.75,83.79,11696
29,83.87,83.9,83.805,83.81,4750
30,83.93,83.98,83.86,83.86,12154
31,83.99,84,83.92,83.93,6010
32,83.94,83.99,83.92,83.99,12597
33,83.94,83.97,83.84,83.94,9235
34,83.95,84,83.9416,83.9416,9624
35,83.9099,83.96,83.86,83.95,5445
36,84.01,84.01,83.91,83.91,2318
37,83.9,84.01,83.85,84.01,4241
38,83.99,84.02,83.88,83.88,4811
39,84.12,84.15,84.01,84.02,6483
40,84.1,84.14,84.06,84.14,4575
41,83.98,84.09,83.98,84.06,3523
42,84.13,84.13,83.93,83.97,6045
43,84.06,84.08,84.0279,84.07,2200
44,83.87,84.01,83.86,84.01,3597
45,83.9,83.9,83.72,83.86,3013
46,83.705,83.87,83.68,83.87,3500
47,83.83,83.85,83.7,83.7001,16685
48,83.79,83.83,83.71,83.79,42596
49,83.78,83.83,83.78,83.78,8553
50,83.69,83.75,83.68,83.74,5161
51,83.6934,83.77,83.6934,83.72,5712
52,83.63,83.7,83.62,83.7,8519
53,83.66,83.69,83.6,83.62,15875
54,83.63,83.67,83.6,83.65,13313
55,83.58,83.63,83.535,83.63,11596
56,83.55,83.6,83.5287,83.59,9658
57,83.59,83.62,83.52,83.52,4103
58,83.66,83.66,83.6,83.6,900
59,83.6,83.73,83.51,83.68,10547
60,83.41,83.63,83.41,83.59,9608
61,83.53,83.62,83.47,83.47,4333
62,83.55,83.64,83.55,83.59,5681
63,83.57,83.62,83.55,83.55,2900
64,83.57,83.67,83.57,83.6,5278
65,83.65,83.69,83.46,83.56,9922
66,83.63,83.74,83.63,83.695,3450
67,83.65,83.7,83.61,83.64,13403
68,83.63,83.65,83.57,83.65,4060
69,83.67,83.69,83.6,83.61,8881
70,83.65,83.67,83.64,83.66,4500
71,83.72,83.74,83.65,83.69,3320
72,83.73,83.74,83.68,83.71,3700
73,83.79,83.834,83.71,83.73,13225
74,83.84,83.895,83.79,83.81,10976
75,83.82,83.87,83.82,83.85,2001
76,83.81,83.85,83.79,83.82,5601
77,83.744,83.81,83.744,83.81,3108
78,83.7049,83.74,83.69,83.74,1843
79,83.62,83.693,83.62,83.693,1451
80,83.66,83.66,83.58,83.62,4126
81,83.63,83.71,83.62,83.62,4650
82,83.69,83.72,83.63,83.65,9912
83,83.706,83.72,83.69,83.7,5751
84,83.74,83.76,83.71,83.73,10785
85,83.72,83.79,83.72,83.75,11533
86,83.85,83.87,83.712,83.712,6300
87,83.84,83.88,83.84,83.88,5732
88,83.79,83.85,83.79,83.84,13202
89,83.8,83.835,83.75,83.8,10600
90,83.87,83.89,83.8,83.84,14968
91,83.94,83.94,83.845,83.845,11201
92,83.95,83.951,83.89,83.92,12728
93,83.89,83.95,83.85,83.93,4876
94,83.87,83.88,83.85,83.88,3412
95,83.78,83.86,83.78,83.86,12786
96,83.8,83.81,83.78,83.78,2100
97,83.79,83.81,83.73,83.81,4000
98,83.756,83.83,83.756,83.8,2400
99,83.6,83.72,83.59,83.72,9910
100,83.56,83.65,83.53,83.63,6403
101,83.49,83.58,83.49,83.58,3900
102,83.56,83.59,83.48,83.53,7701
103,83.595,83.595,83.54,83.57,1400
104,83.63,83.64,83.55,83.57,4429
105,83.72,83.76,83.63,83.68,8250
106,83.79,83.79,83.69,83.72,61224
107,83.865,83.89,83.78,83.79,6805
108,83.88,83.89,83.81,83.83,4221
109,83.96,83.96,83.85,83.85,2500
110,83.95,83.97,83.85,83.95,8531
111,84.24,84.29,83.9901,84,26795
112,84.38,84.41,84.275,84.31,9149
113,84.3601,84.44,84.34,84.35,6075
114,84.45,84.46,84.39,84.39,13318
115,84.44,84.54,84.44,84.45,5152
116,84.41,84.455,84.41,84.45,4804
117,84.36,84.44,84.35,84.4,7630
118,84.31,84.4,84.3,84.4,4005
119,84.43,84.43,84.3,84.32,7367
120,84.43,84.45,84.34,84.43,5203
121,84.29,84.44,84.2601,84.4,8696
122,84.34,84.34,84.25,84.29,8419
123,84.295,84.3499,84.285,84.34,5007
124,84.4,84.4,84.295,84.31,8841
125,84.37,84.4188,84.36,84.41,6614
126,84.22,84.39,84.175,84.37,6796
127,84.29,84.3,84.26,84.28,1728
128,84.26,84.32,84.21,84.28,9617
129,84.31,84.31,84.28,84.28,800
130,84.36,84.38,84.33,84.33,2400
131,84.34,84.35,84.3,84.33,5508
132,84.2,84.3,84.2,84.28,2311
133,84.27,84.27,84.21,84.21,1300
134,84.32,84.36,84.27,84.27,3325
135,84.16,84.31,84.16,84.31,2068
136,84.19,84.26,84.16,84.16,2115
137,84.12,84.23,84.11,84.2,2931
138,84.12,84.18,84.11,84.11,1112
139,84.13,84.13,84.09,84.1,1400
140,84.09,84.19,84.09,84.16,2400
141,84.11,84.11,84.0697,84.11,1580
142,84.08,84.14,84.07,84.13,2672
143,84.08,84.11,84.08,84.09,958
144,84.005,84.05,84,84.05,4529
145,84.03,84.04,83.98,83.99,3254
146,84,84.02,83.96,84.02,2500
147,83.94,83.99,83.91,83.98,5447
148,83.96,83.96,83.87,83.92,4004
149,83.95,83.95,83.92,83.94,1662
150,83.91,83.93,83.86,83.92,3403
151,83.92,83.98,83.91,83.95,4102
152,84.01,84.01,83.92,83.95,2418
153,83.98,84.05,83.96,84.01,6127
154,83.97,83.99,83.93,83.98,1450
155,84.06,84.06,83.98,84.01,2851
156,84.14,84.14,84.0601,84.0601,3386
157,84.102,84.16,84.1,84.11,2311
158,84.11,84.11,84.08,84.085,600
159,84.14,84.15,84.08,84.09,2520
160,84.07,84.1299,84.07,84.11,2025
161,84.11,84.13,84.09,84.09,947
162,84.15,84.15,84.11,84.11,4100
163,84.14,84.2,84.14,84.16,4796
164,84.19,84.19,84.14,84.16,2100
165,84.16,84.23,84.16,84.2,3769
166,84.11,84.17,84.1,84.16,2300
167,84.09,84.11,84.05,84.1,2868
168,84.13,84.13,84.09,84.1,1901
169,84.1,84.14,84.1,84.1,1802
170,84.13,84.14,84.08,84.08,1800
171,84.13,84.15,84.12,84.15,1857
172,84.07,84.14,84.07,84.14,1597
173,84.05,84.11,84.05,84.09,4314
174,84.11,84.11,84.05,84.05,1946
175,84.11,84.11,84.07,84.11,1100
176,84.04,84.07,84.01,84.05,1601
177,84.08,84.09,84.05,84.05,3417
178,84.08,84.11,84.07,84.08,3800
179,84.07,84.11,84.06,84.1,2602
180,84,84.0801,83.98,84.0801,2646
181,84.01,84.04,83.96,83.98,2244
182,84.06,84.06,84,84,2347
183,84.1,84.12,84.08,84.09,3600
184,84.08,84.1,84.04,84.09,11921
185,84.08,84.1,84.06,84.09,5467
186,84.1199,84.12,84.07,84.07,8200
187,84.14,84.17,84.125,84.14,6080
188,84.1,84.16,84.0995,84.15,8219
189,84.15,84.15,84.11,84.11,3637
190,84.09,84.15,84.08,84.11,4636
191,84.06,84.11,84.06,84.11,1200
192,84.02,84.05,84.01,84.04,1500
193,84.04,84.05,84.01,84.03,1836
194,84.09,84.11,84.03,84.03,3821
195,84.09,84.14,84.09,84.12,2100
196,84.07,84.1,84.05,84.09,2989
197,84.12,84.14,84.09,84.1,2501
198,84.159,84.17,84.1,84.13,2400
199,84.21,84.21,84.16,84.16,1798
200,84.31,84.32,84.22,84.22,2363
201,84.29,84.33,84.27,84.33,2278
202,84.28,84.3,84.27,84.27,1172
203,84.31,84.31,84.27,84.3,900
204,84.33,84.33,84.3,84.315,1000
205,84.39,84.4,84.32,84.34,3042
206,84.38,84.42,84.37,84.4,1397
207,84.38,84.4,84.35,84.38,2588
208,84.39,84.43,84.38,84.38,1900
209,84.29,84.38,84.29,84.38,1059
210,84.24,84.26,84.2,84.26,3163
211,84.2,84.25,84.17,84.22,4527
212,84.19,84.22,84.17,84.19,51882
213,84.29,84.3,84.19,84.19,5943
214,84.23,84.277,84.21,84.277,2681
215,84.19,84.23,84.18,84.23,1622
216,84.14,84.2,84.11,84.2,5443
217,84.1,84.19,84.1,84.14,3147
218,84.17,84.17,84.09,84.09,2100
219,84.08,84.15,84.05,84.15,6636
220,84.07,84.08,84,84.08,3221
221,84.04,84.09,84.03,84.05,3174
222,84.07,84.07,84.06,84.07,5378
223,84.14,84.14,84.1,84.1,404
224,84.11,84.14,84.11,84.12,800
225,84.1,84.15,84.1,84.15,900
226,84.06,84.0807,84.06,84.0807,2100
227,84.1,84.1,84.07,84.07,700
228,84.02,84.11,84.01,84.11,4536
229,83.94,84,83.94,84,2531
230,83.95,83.95,83.89,83.945,2300
231,83.95,83.98,83.94,83.94,2287
232,83.934,83.934,83.88,83.91,1933
233,83.95,83.96,83.92,83.93,13926
234,83.915,83.94,83.9,83.93,7374
235,83.91,83.93,83.88,83.89,2832
236,83.97,83.97,83.89,83.89,3471
237,83.93,83.97,83.91,83.95,7015
238,83.85,83.925,83.8276,83.91,4245
239,83.81,83.9,83.8,83.855,5110
240,83.8,83.85,83.74,83.79,10084
241,83.92,83.92,83.79,83.81,30278
242,84,84.03,83.9156,83.9156,4851
243,84.01,84.05,83.99,84.05,3000
244,83.96,84,83.96,83.99,2200
245,83.94,83.98,83.94,83.98,422
246,84,84,83.94,83.94,11399
247,84.06,84.0896,84.02,84.03,8049
248,84.015,84.08,84.015,84.08,2500
249,83.98,83.99,83.95,83.98,1600
250,84.05,84.06,83.95,83.97,1600
251,84.16,84.16,84.03,84.03,2115
252,84.04,84.16,84.04,84.16,1451
253,84.03,84.07,84.03,84.07,800
254,84.06,84.06,83.98,84.02,14973
255,84.09,84.12,84.067,84.067,15303
256,84.12,84.13,84.09,84.11,9417
257,84.12,84.1329,84.09,84.12,18643
258,84.13,84.15,84.13,84.13,4021
259,84.11,84.11,84.06,84.09,1402
260,84.06,84.12,84.06,84.12,1102
261,84.09,84.1203,84.04,84.04,5382
262,84.19,84.2,84.08,84.1,6346
263,84.21,84.21,84.18,84.19,3992
264,84.17,84.23,84.17,84.2,5255
265,84.17,84.24,84.17,84.2,4352
266,84.19,84.21,84.17,84.19,500
267,84.11,84.21,84.11,84.2,2800
268,84.1,84.12,84.09,84.11,1101
269,84.07,84.135,84.07,84.09,2601
270,84.04,84.07,84.01,84.06,6400
271,84.15,84.15,84.06,84.06,2380
272,84.17,84.18,84.13,84.16,3230
273,84.16,84.225,84.15,84.16,5101
274,84.17,84.19,84.17,84.17,1000
275,84.19,84.27,84.18,84.18,7903
276,84.21,84.23,84.18,84.1864,3450
277,84.29,84.29,84.17,84.21,13724
278,84.37,84.37,84.31,84.31,1806
279,84.38,84.395,84.34,84.35,2880
280,84.43,84.44,84.37,84.37,5779
281,84.43,84.43,84.41,84.43,1600
282,84.43,84.445,84.4,84.4,1201
283,84.405,84.44,84.385,84.44,4300
284,84.41,84.43,84.395,84.4055,1300
285,84.3701,84.41,84.3532,84.37,3866
286,84.34,84.39,84.3393,84.38,7150
287,84.35,84.38,84.3,84.31,5280
288,84.4,84.4,84.31,84.31,3500
289,84.445,84.46,84.39,84.4,3344
290,84.4,84.44,84.38,84.43,2770
291,84.42,84.44,84.37,84.41,2251
292,84.37,84.43,84.355,84.38,14106
293,84.32,84.38,84.32,84.36,2186
294,84.29,84.34,84.26,84.3,7826
295,84.27,84.32,84.26,84.3,2626
296,84.37,84.38,84.28,84.28,3100
297,84.401,84.45,84.345,84.36,3701
298,84.46,84.53,84.45,84.47,2200
299,84.46,84.48,84.42,84.46,4800
300,84.48,84.48,84.42,84.45,3326
301,84.49,84.5,84.47,84.49,2601
302,84.38,84.46,84.38,84.46,4688
303,84.4,84.42,84.33,84.36,7909
304,84.365,84.3965,84.35,84.3965,4091
305,84.34,84.38,84.335,84.36,6903
306,84.3001,84.35,84.3001,84.33,5650
307,84.5,84.51,84.265,84.3,12848
308,84.55,84.56,84.49,84.49,4226
309,84.49,84.55,84.43,84.55,6196
310,84.51,84.52,84.46,84.5,8928
311,84.48,84.53,84.46,84.5,19659
312,84.45,84.49,84.445,84.46,4159
313,84.42,84.47,84.4,84.44,3918
314,84.45,84.46,84.435,84.45,1700
315,84.4164,84.47,84.4164,84.44,5382
316,84.38,84.42,84.35,84.42,7874
317,84.34,84.4,84.34,84.39,2897
318,84.36,84.37,84.32,84.33,6796
319,84.32,84.39,84.32,84.35,4771
320,84.29,84.31,84.27,84.31,6290
321,84.25,84.28,84.23,84.28,5553
322,84.21,84.25,84.165,84.24,6957
323,84.2,84.2,84.16,84.18,6749
324,84.22,84.22,84.19,84.2,1790
325,84.27,84.27,84.2,84.2,3700
326,84.2716,84.3,84.23,84.29,12845
327,84.22,84.27,84.19,84.25,5549
328,84.2,84.26,84.19,84.24,3114
329,84.2,84.22,84.2,84.21,1116
330,84.3,84.32,84.22,84.22,9912
331,84.29,84.29,84.2401,84.29,1936
332,84.3001,84.33,84.28,84.3,4021
333,84.3,84.32,84.3,84.32,1400
334,84.3,84.31,84.295,84.31,6900
335,84.35,84.39,84.31,84.31,7303
336,84.35,84.37,84.35,84.35,2226
337,84.39,84.39,84.36,84.36,3912
338,84.44,84.44,84.4,84.41,2300
339,84.43,84.47,84.42,84.45,6450
340,84.36,84.43,84.36,84.43,2723
341,84.24,84.36,84.24,84.36,1700
342,84.25,84.25,84.23,84.25,5799
343,84.2099,84.27,84.2,84.24,6877
344,84.16,84.2,84.15,84.19,13684
345,84.11,84.19,84.07,84.16,14095
346,83.995,84.09,83.99,84.09,9648
347,84.06,84.07,84.01,84.01,8675
348,84.07,84.08,84.04,84.07,6834
349,84,84.06,83.99,84.06,10247
350,84.06,84.09,84,84,6111
351,84.15,84.16,84.08,84.09,4078
352,84.21,84.21,84.11,84.13,5503
353,84.18,84.21,84.15,84.2,4232
354,84.14,84.17,84.135,84.15,4324
355,84.12,84.16,84.12,84.15,4100
356,84.13,84.14,84.08,84.12,3974
357,84.15,84.15,84.1,84.12,3815
358,84.18,84.18,84.12,84.15,6169
359,84.19,84.2,84.14,84.17,13400
360,84.07,84.19,84.07,84.19,8511
361,84.04,84.07,84.015,84.06,11284
362,84.05,84.06,84.025,84.04,10087
363,84.09,84.11,84.05,84.05,6310
364,84.13,84.13,84.075,84.1,4254
365,84.12,84.13,84.095,84.12,10153
366,84.14,84.14,84.07,84.115,7681
367,83.995,84.13,83.995,84.12,8054
368,84.03,84.042,84,84,6700
369,84.12,84.14,84,84,11799
370,84.05,84.11,84.02,84.11,12513
371,84.03,84.09,84,84.06,7192
372,84.01,84.09,84.01,84.04,10779
373,84.02,84.02,83.98,84,5003
374,84.01,84.02,83.94,84.02,10780
375,84.06,84.06,83.98,84.005,9877
376,84.03,84.05,84.02,84.05,8355
377,83.94,84.03,83.94,84.03,11498
378,83.98,83.98,83.91,83.93,12221
379,83.955,84,83.95,83.97,10416
380,83.88,83.955,83.8571,83.95,6907
381,83.89,83.89,83.84,83.87,4220
382,83.91,83.91,83.88,83.89,9264
383,83.89,83.96,83.89,83.903,18416
384,83.87,83.885,83.83,83.88,16333
385,83.785,83.87,83.76,83.87,18383
386,83.74,83.79,83.705,83.79,26976
387,83.715,83.79,83.71,83.73,15695
388,83.76,83.78,83.71,83.715,20182
389,83.8,83.8,83.72,83.76,35654
a1445520660,84.82,84.82,84.56,84.63,1300
1,84.67,84.67,84.67,84.67,300
2,84.658,84.68,84.46,84.54,33602
3,84.68,84.68,84.62,84.64,1795
4,84.658,84.658,84.63,84.63,400
5,84.65,84.93,84.58,84.64,15655
6,84.5,84.745,84.5,84.68,8895
7,84.61,84.85,84.45,84.45,7344
8,84.73,84.73,84.555,84.59,4500
9,84.83,84.9,84.6,84.73,8765
10,84.8404,85.01,84.72,84.815,10641
11,84.97,85.09,84.8,84.99,7856
12,85.07,85.08,84.9101,84.96,4803
13,85.07,85.32,84.96,85.13,13105
14,85.18,85.35,85.06,85.06,6747
15,85.29,85.31,85.09,85.09,1900
16,85.2499,85.38,85.16,85.33,3375
17,85.19,85.23,85.06,85.23,4320
18,85.18,85.21,85.13,85.13,1775
19,85.11,85.16,85.02,85.15,3158
20,85.39,85.4,85.162,85.17,8451
21,85.208,85.5,85.208,85.37,10844
22,85.1,85.2,85.1,85.18,2969
23,85.01,85.12,84.95,85.05,11332
24,85.05,85.15,85.05,85.12,3402
25,85.07,85.16,85,85.03,6000
26,85.04,85.09,85.01,85.07,1310
27,85.0284,85.05,84.97,85.02,6937
28,85.2,85.27,85.01,85.01,2340
29,85.3612,85.39,85.268,85.27,1800
30,85.325,85.4,85.21,85.309,2751
31,85.26,85.35,85.2,85.29,2600
32,85.35,85.35,85.24,85.24,4184
33,85.343,85.35,85.28,85.31,5504
34,85.38,85.41,85.28,85.29,2932
35,85.5,85.5999,85.41,85.41,4386
36,85.29,85.5,85.29,85.5,3402
37,85.39,85.4,85.31,85.31,2300
38,85.31,85.36,85.275,85.36,2112
39,85.26,85.33,85.2,85.3278,2100
40,85.25,85.33,85.25,85.27,2313
41,85.3,85.3,85.23,85.27,1850
42,85.32,85.33,85.21,85.32,21230
43,85.38,85.43,85.33,85.34,10700
44,85.34,85.4,85.34,85.4,3405
45,85.44,85.44,85.38,85.39,4135
46,85.44,85.48,85.37,85.45,2538
47,85.35,85.45,85.35,85.45,4264
48,85.44,85.48,85.37,85.37,2174
49,85.58,85.58,85.47,85.504,2765
50,85.67,85.7,85.55,85.595,6404
51,85.62,85.72,85.62,85.7,4738
52,85.63,85.68,85.6,85.6,2410
53,85.5444,85.61,85.53,85.61,1442
54,85.47,85.56,85.43,85.51,4325
55,85.42,85.45,85.38,85.38,850
56,85.37,85.44,85.37,85.416,2270
57,85.38,85.44,85.38,85.4,1625
58,85.32,85.4,85.29,85.4,2350
59,85.22,85.316,85.11,85.27,12998
60,85.01,85.28,84.98,85.2,24880
61,84.99,85.04,84.88,84.97,27496
62,84.99,85.08,84.96,85.04,10880
63,84.97,85.04,84.96,84.98,13943
64,85.021,85.021,84.93,84.98,1300
65,85.12,85.12,85.09,85.09,1090
66,85.14,85.19,85.06,85.18,3874
67,85.05,85.12,85,85.12,2542
68,84.89,85.04,84.87,85.02,7000
69,85.02,85.02,84.87,84.89,4347
70,85.04,85.04,84.93,85,13981
71,84.985,85.055,84.96,85.04,9551
72,84.98,85.02,84.92,85,20871
73,85.05,85.05,84.95,84.99,4425
74,84.98,85.0494,84.94,85.0494,3855
75,84.91,85.02,84.87,85.02,4655
76,85.05,85.05,84.87,84.88,15217
77,85.19,85.19,85,85.04,4200
78,85.28,85.28,85.17,85.21,6886
79,85.42,85.42,85.2455,85.3,14005
80,85.37,85.43,85.34,85.41,4334
81,85.29,85.39,85.27,85.3625,2232
82,85.32,85.32,85.26,85.3107,2140
83,85.33,85.39,85.32,85.36,2371
84,85.35,85.35,85.33,85.35,800
85,85.28,85.35,85.26,85.34,3699
86,85.2,85.27,85.2,85.26,2600
87,85.27,85.27,85.16,85.22,3750
88,85.28,85.3,85.23,85.27,4541
89,85.28,85.31,85.23,85.31,5700
90,85.18,85.34,85.16,85.275,4896
91,85.07,85.15,84.98,85.15,10891
92,85,85.1,85,85.0716,1700
93,85.15,85.19,85.03,85.04,5469
94,85.16,85.25,85.11,85.17,2277
95,85.11,85.23,85.11,85.17,2444
96,84.99,85.11,84.98,85.09,3500
97,85.08,85.09,84.99,84.99,3711
98,85.13,85.13,85.06,85.06,3599
99,85.01,85.09,84.98,85.08,5600
100,85.04,85.0604,84.94,84.98,3063
101,85.01,85.08,84.99,85.0487,3565
102,85.04,85.06,84.97,85,5400
103,85.18,85.18,85.05,85.0625,3750
104,85.2,85.26,85.16,85.17,1700
105,85.22,85.26,85.13,85.2,4726
106,85.27,85.29,85.23,85.24,4234
107,85.23,85.29,85.21,85.28,1900
108,85.19,85.21,85.15,85.21,2302
109,85.3,85.34,85.19,85.21,11288
110,85.27,85.32,85.25,85.29,3176
111,85.25,85.3,85.235,85.27,8420
112,85.25,85.31,85.22,85.24,12237
113,85.18,85.27,85.13,85.26,10476
114,85.2,85.22,85.13,85.16,5524
115,85.18,85.25,85.18,85.23,2181
116,85.19,85.21,85.16,85.19,1800
117,85.18,85.22,85.17,85.19,3683
118,85.09,85.18,85.09,85.18,8426
119,85.17,85.17,85.11,85.11,1200
120,85.1,85.21,85.08,85.198,4112
121,85.18,85.18,85.08,85.1,5751
122,85.25,85.25,85.15,85.19,5785
123,85.2,85.22,85.12,85.22,8346
124,85.13,85.23,85.09,85.215,10400
125,85.14,85.18,85.14,85.14,5370
126,85.2,85.21,85.14,85.14,3245
127,85.19,85.22,85.18,85.21,8172
128,85.1501,85.17,85.115,85.16,6860
129,85.22,85.22,85.19,85.19,1414
130,85.1723,85.22,85.16,85.22,1950
131,85.07,85.17,85.07,85.17,2027
132,85.1,85.12,85.05,85.09,17499
133,85.19,85.19,85.08,85.1,21581
134,85.21,85.23,85.16,85.19,9417
135,85.34,85.35,85.25,85.25,10000
136,85.46,85.46,85.33,85.34,1476
137,85.45,85.45,85.416,85.44,3067
138,85.45,85.52,85.45,85.45,3445
139,85.47,85.51,85.4,85.47,7045
140,85.55,85.55,85.4609,85.473,2500
141,85.55,85.58,85.49,85.5,7530
142,85.59,85.62,85.5,85.51,5450
143,85.58,85.59,85.54,85.58,2301
144,85.542,85.6,85.53,85.5558,3650
145,85.64,85.64,85.53,85.55,5568
146,85.6,85.67,85.57,85.62,4225
147,85.585,85.59,85.555,85.59,1110
148,85.64,85.68,85.585,85.585,3089
149,85.66,85.68,85.62,85.65,3100
150,85.61,85.69,85.58,85.675,2997
151,85.55,85.6,85.55,85.6,2219
152,85.56,85.58,85.49,85.53,2308
153,85.7,85.7,85.57,85.58,2258
154,85.73,85.73,85.65,85.67,2285
155,85.77,85.77,85.6901,85.6901,3136
156,85.67,85.74,85.67,85.74,1242
157,85.67,85.69,85.63,85.65,1800
158,85.76,85.77,85.65,85.66,3394
159,85.81,85.83,85.74,85.74,4552
160,85.8,85.84,85.76,85.81,4085
161,85.71,85.81,85.7,85.81,2600
162,85.77,85.78,85.69,85.69,2500
163,85.74,85.77,85.69,85.77,1600
164,85.74,85.75,85.69,85.73,2500
165,85.7,85.72,85.65,85.72,3000
166,85.64,85.67,85.59,85.65,2669
167,85.47,85.68,85.47,85.62,8809
168,85.53,85.57,85.48,85.54,6100
169,85.45,85.5,85.45,85.47,2600
170,85.3,85.46,85.2725,85.46,7650
171,85.25,85.31,85.25,85.295,4000
172,85.3,85.41,85.3,85.31,16389
173,85.37,85.37,85.27,85.28,11917
174,85.43,85.44,85.34,85.34,1512
175,85.53,85.575,85.4101,85.44,5053
176,85.5765,85.64,85.53,85.55,6956
177,85.67,85.6865,85.59,85.59,3500
178,85.72,85.72,85.6101,85.69,5716
179,85.67,85.73,85.6201,85.73,3674
180,85.65,85.69,85.64,85.66,2300
181,85.63,85.69,85.63,85.67,3500
182,85.72,85.73,85.66,85.66,3832
183,85.68,85.7113,85.67,85.7,4960
184,85.66,85.73,85.65,85.65,2711
185,85.57,85.63,85.56,85.63,4900
186,85.65,85.65,85.59,85.59,1970
187,85.63,85.64,85.58,85.62,2400
188,85.69,85.715,85.64,85.64,3854
189,85.69,85.71,85.65,85.68,4340
190,85.76,85.8,85.7,85.7,7017
191,85.78,85.8,85.73,85.76,1800
192,85.86,85.86,85.74,85.74,5200
193,85.84,85.86,85.82,85.86,4000
194,85.79,85.84,85.77,85.84,5687
195,85.81,85.85,85.79,85.83,3060
196,85.8,85.84,85.8,85.81,2141
197,85.76,85.81,85.76,85.78,4128
198,85.79,85.84,85.76,85.76,3850
199,85.83,85.86,85.82,85.84,2351
200,85.86,85.87,85.81,85.85,3752
201,85.83,85.84,85.81,85.84,2418
202,85.88,85.91,85.84,85.86,1400
203,85.89,85.91,85.85,85.88,4255
204,85.94,85.99,85.88,85.88,3188
205,85.925,85.97,85.91,85.96,8200
206,85.84,85.92,85.84,85.92,2600
207,85.84,85.86,85.79,85.83,1600
208,85.85,85.88,85.79,85.8,13301
209,85.83,85.93,85.81,85.87,18270
210,85.79,85.8625,85.79,85.84,9900
211,85.77,85.77,85.74,85.7616,5237
212,85.76,85.81,85.75,85.76,8161
213,85.73,85.78,85.73,85.74,2800
214,85.73,85.78,85.72,85.74,6018
215,85.75,85.78,85.74,85.76,3595
216,85.79,85.82,85.76,85.76,1315
217,85.82,85.85,85.81,85.81,4850
218,85.85,85.88,85.81,85.81,4991
219,85.8466,85.8466,85.82,85.82,2200
220,85.85,85.89,85.845,85.845,1400
221,85.89,85.89,85.83,85.85,5234
222,85.89,85.9,85.88,85.88,3901
223,85.91,85.93,85.89,85.91,1430
224,85.92,85.92,85.88,85.9146,5226
225,85.78,85.9,85.78,85.9,5822
226,85.78,85.86,85.744,85.77,7800
227,85.82,85.82,85.75,85.76,3081
228,85.78,85.82,85.77,85.8,2494
229,85.8,85.8,85.76,85.78,1818
230,85.8,85.82,85.76,85.77,5370
231,85.81,85.83,85.69,85.77,12719
232,85.79,85.85,85.77,85.83,1492
233,85.77,85.83,85.77,85.81,1500
234,85.84,85.85,85.81,85.81,1200
235,85.84,85.885,85.84,85.85,9205
236,85.84,85.88,85.8,85.88,4900
237,85.85,85.87,85.83,85.86,3218
238,85.88,85.88,85.84,85.87,2944
239,85.91,85.93,85.88,85.88,4440
240,85.86,85.92,85.86,85.91,2225
241,85.9,85.9,85.85,85.86,4400
242,85.82,85.9,85.82,85.89,3099
243,85.84,85.85,85.81,85.81,2500
244,85.8598,85.86,85.83,85.83,2392
245,85.85,85.85,85.81,85.85,3300
246,85.83,85.85,85.77,85.85,3600
247,85.85,85.86,85.8,85.82,5334
248,85.86,85.91,85.8564,85.8564,1885
249,85.84,85.87,85.82,85.85,4050
250,85.78,85.84,85.78,85.83,3650
251,85.67,85.78,85.67,85.78,17623
252,85.65,85.69,85.62,85.69,3500
253,85.62,85.6599,85.58,85.6599,4370
254,85.5601,85.6,85.5601,85.6,400
255,85.58,85.61,85.56,85.6,2811
256,85.53,85.59,85.48,85.56,6304
257,85.51,85.53,85.47,85.53,7278
258,85.41,85.48,85.4,85.48,9249
259,85.37,85.38,85.335,85.3401,5203
260,85.28,85.33,85.24,85.33,5400
261,85.25,85.29,85.24,85.27,5100
262,85.22,85.26,85.21,85.23,8707
263,85.18,85.22,85.17,85.21,2283
264,85.2,85.22,85.14,85.19,5894
265,85.15,85.23,85.14,85.17,5998
266,85.12,85.17,85.08,85.17,13887
267,85.03,85.16,85.03,85.13,5498
268,84.94,85.03,84.91,85.03,9124
269,84.85,84.92,84.84,84.92,3184
270,84.71,84.9,84.71,84.86,29373
271,84.6499,84.73,84.5,84.73,18937
272,84.585,84.65,84.54,84.65,12642
273,84.52,84.63,84.52,84.5853,8729
274,84.4515,84.5,84.4515,84.49,8974
275,84.38,84.46,84.38,84.45,3308
276,84.49,84.5,84.37,84.4,15329
277,84.59,84.59,84.46,84.47,17743
278,84.66,84.66,84.5999,84.6,7017
279,84.76,84.76,84.67,84.67,7695
280,84.85,84.86,84.74,84.75,1700
281,84.87,84.9,84.8,84.84,4340
282,84.75,84.86,84.72,84.86,4560
283,84.7,84.72,84.64,84.72,6921
284,84.71,84.71,84.63,84.71,3176
285,84.765,84.78,84.7,84.75,8600
286,84.5,84.75,84.5,84.75,11223
287,84.49,84.55,84.48,84.5,10137
288,84.56,84.56,84.48,84.48,6550
289,84.5,84.57,84.48,84.56,6842
290,84.51,84.56,84.45,84.52,2372
291,84.67,84.67,84.52,84.53,4784
292,84.72,84.72,84.665,84.67,3435
293,84.8,84.86,84.76,84.76,9772
294,84.86,84.88,84.83,84.84,4000
295,84.89,84.94,84.87,84.89,8996
296,85.04,85.06,84.9,84.9,14840
297,84.97,85.05,84.95,85.05,4689
298,85.12,85.13,85.03,85.03,2731
299,85.16,85.18,85.12,85.14,2000
300,85.19,85.2099,85.15,85.15,2622
301,85.16,85.2,85.13,85.2,3898
302,85.31,85.31,85.16,85.17,2189
303,85.27,85.33,85.27,85.31,7723
304,85.35,85.35,85.25,85.27,3049
305,85.41,85.44,85.36,85.36,5001
306,85.37,85.4,85.36,85.38,1532
307,85.36,85.37,85.32,85.36,4420
308,85.4,85.4,85.36,85.36,2070
309,85.41,85.47,85.38,85.41,6127
310,85.44,85.47,85.39,85.44,2720
311,85.42,85.45,85.41,85.44,2540
312,85.41,85.47,85.389,85.415,3001
313,85.378,85.4,85.37,85.38,2481
314,85.45,85.45,85.41,85.41,3313
315,85.46,85.51,85.4,85.41,3975
316,85.48,85.49,85.41,85.44,4984
317,85.55,85.57,85.46,85.51,4018
318,85.6,85.637,85.567,85.57,13382
319,85.64,85.69,85.59,85.6199,7671
320,85.64,85.665,85.63,85.645,4500
321,85.67,85.69,85.63,85.63,9787
322,85.69,85.71,85.65,85.68,16727
323,85.72,85.75,85.685,85.685,8021
324,85.68,85.74,85.65,85.74,3243
325,85.62,85.71,85.61,85.71,6100
326,85.49,85.6,85.49,85.6,4886
327,85.52,85.57,85.49,85.53,7626
328,85.6,85.61,85.52,85.54,3939
329,85.6,85.61,85.55,85.6,4446
330,85.58,85.61,85.56,85.61,4863
331,85.445,85.56,85.43,85.56,5342
332,85.38,85.47,85.36,85.46,5182
333,85.49,85.49,85.36,85.36,31830
334,85.57,85.6,85.46,85.474,6818
335,85.63,85.63,85.56,85.57,4251
336,85.64,85.66,85.6,85.6,4050
337,85.65,85.68,85.62,85.64,5683
338,85.68,85.695,85.66,85.67,3673
339,85.66,85.72,85.64,85.67,6271
340,85.65,85.67,85.63,85.65,5412
341,85.7,85.7,85.65,85.65,4225
342,85.66,85.7,85.65,85.7,2525
343,85.6572,85.6572,85.57,85.64,2507
344,85.76,85.76,85.67,85.67,3809
345,85.86,85.86,85.77,85.77,4632
346,85.83,85.84,85.8,85.84,4233
347,85.8,85.87,85.8,85.83,6326
348,85.82,85.82,85.76,85.81,2200
349,85.86,85.86,85.79,85.8,3844
350,85.94,85.99,85.85,85.85,6522
351,85.88,85.95,85.88,85.95,2500
352,85.93,85.97,85.9,85.9,3295
353,85.96,85.97,85.92,85.93,3129
354,86.05,86.07,85.965,85.9777,11119
355,86.07,86.08,86.02,86.04,3600
356,86.11,86.12,86.06,86.06,4573
357,86.09,86.17,86.07,86.12,8697
358,86.09,86.13,86.024,86.09,12265
359,86.07,86.09,86.04,86.05,2760
360,86.06,86.07,86.02,86.05,4655
361,86.01,86.05,85.98,86.05,3600
362,86.01,86.01,85.98,86,2944
363,85.97,86.016,85.95,86.016,5802
364,85.99,86.01,85.95,85.97,3533
365,85.95,86.01,85.95,85.985,18262
366,85.9101,85.97,85.9,85.92,6611
367,85.85,85.91,85.85,85.91,5859
368,85.86,85.87,85.82,85.84,6519
369,85.86,85.88,85.84,85.86,7667
370,85.76,85.865,85.76,85.86,6624
371,85.79,85.81,85.77,85.77,3239
372,85.64,85.79,85.64,85.79,8799
373,85.74,85.77,85.64,85.64,9282
374,85.79,85.82,85.75,85.75,7212
375,85.82,85.84,85.8,85.82,11433
376,85.83,85.847,85.81,85.82,13568
377,85.75,85.84,85.75,85.84,7056
378,85.65,85.74,85.63,85.74,6057
379,85.66,85.68,85.64,85.66,8443
380,85.61,85.69,85.6,85.67,6610
381,85.63,85.64,85.58,85.61,10816
382,85.66,85.66,85.6,85.62,8924
383,85.67,85.69,85.63,85.67,15379
384,85.67,85.69,85.65,85.67,11359
385,85.76,85.78,85.67,85.67,14772
386,85.82,85.82,85.75,85.76,14512
387,85.87,85.89,85.81,85.82,18375
388,85.83,85.875,85.82,85.87,39814
389,85.79,85.86,85.75,85.83,51169
a1445607060,85.1201,85.38,85.06,85.09,42195
1,85.29,85.295,85.08,85.25,5500
2,85.37,85.38,85.37,85.38,500
3,85.16,85.33,85.13,85.22,6532
4,85.03,85.17,85.03,85.15,5871
5,84.7,85.08,84.32,85,23380
6,84.87,84.93,84.616,84.725,12674
7,85.21,85.21,84.76,84.9,21852
8,85.24,85.24,84.86,85.1,11266
9,85.03,85.26,84.97,85.25,10103
10,84.995,85.2,84.94,85.13,14125
11,84.65,85.065,84.65,84.9581,24786
12,84.72,84.81,84.64,84.65,14084
13,84.77,84.86,84.68,84.71,15040
14,85,85,84.78,84.84,5077
15,84.91,84.996,84.91,84.96,4665
16,84.94,84.97,84.81,84.95,3874
17,85.08,85.08,84.9,85,6550
18,84.97,85.06,84.97,85.05,3200
19,84.99,85.12,84.96,85.05,9006
20,85.07,85.17,85.02,85.02,2550
21,85.014,85.15,85,85.04,4772
22,85.04,85.12,85.014,85.02,12329
23,85.15,85.1795,85.08,85.08,5367
24,85.01,85.15,85,85.15,5955
25,84.91,85,84.91,84.98,4850
26,85.03,85.09,84.92,84.9399,4456
27,85.19,85.19,85.05,85.05,2709
28,85.14,85.21,85.1,85.2,1791
29,85.16,85.16,85.04,85.105,13986
30,85.14,85.14,85.08,85.11,3076
31,85,85.15,85,85.15,7985
32,84.92,85.009,84.87,85.009,17941
33,85,85.04,84.89,84.92,7561
34,84.99,85.07,84.97,85.03,5315
35,85.02,85.19,85,85.01,24241
36,84.94,85.08,84.94,85.045,11186
37,84.99,85,84.83,84.95,22131
38,85.04,85.09,84.99,84.99,5793
39,85.21,85.21,85,85,5396
40,85.42,85.47,85.21,85.21,6825
41,85.335,85.45,85.26,85.44,15101
42,85.23,85.335,85.225,85.33,16430
43,85.21,85.23,85.16,85.23,12140
44,85.315,85.34,85.18,85.2,11621
45,85.23,85.31,85.2,85.3,11618
46,85.27,85.27,85.2,85.23,2300
47,85.23,85.24,85.14,85.21,900
48,85.25,85.3,85.22,85.24,4584
49,85.1515,85.21,85.1,85.21,5775
50,85.06,85.19,85.02,85.18,2613
51,85.17,85.17,84.97,85.04,7076
52,85.345,85.35,85.16,85.19,6742
53,85.34,85.4,85.325,85.35,5465
54,85.47,85.48,85.32,85.32,9798
55,85.645,85.66,85.45,85.46,12031
56,85.455,85.68,85.42,85.68,9811
57,85.26,85.48,85.26,85.45,9226
58,85.18,85.33,85.18,85.3,2184
59,85.19,85.23,85.15,85.18,6057
60,85.3455,85.3455,85.2107,85.2107,6577
61,85.47,85.47,85.3601,85.3601,2532
62,85.59,85.6,85.5,85.5,1338
63,85.92,85.92,85.64,85.64,1748
64,85.88,85.905,85.79,85.893,3709
65,85.65,85.87,85.65,85.856,4571
66,85.71,85.71,85.7,85.7,1151
67,85.66,85.75,85.62,85.73,3355
68,85.7,85.7,85.6,85.69,5138
69,85.91,85.91,85.61,85.65,3176
70,85.94,85.96,85.8,85.91,10221
71,86.02,86.03,85.94,85.9699,2059
72,86.07,86.08,85.95,86.01,2397
73,86.03,86.09,86,86.0816,2250
74,85.758,86.03,85.74,86.03,2800
75,85.83,85.84,85.762,85.762,4033
76,85.75,85.81,85.73,85.79,1100
77,85.74,85.74,85.62,85.7,3790
78,85.64,85.72,85.61,85.68,4807
79,85.48,85.62,85.4301,85.61,4015
80,85.45,85.48,85.42,85.45,2365
81,85.56,85.56,85.45,85.45,2901
82,85.5,85.61,85.48,85.59,5349
83,85.56,85.56,85.47,85.51,4100
84,85.62,85.65,85.57,85.6,2900
85,85.53,85.6299,85.53,85.6299,1500
86,85.39,85.51,85.35,85.51,4426
87,85.35,85.49,85.35,85.41,10576
88,85.375,85.39,85.31,85.34,7500
89,85.49,85.51,85.3525,85.3525,3249
90,85.56,85.56,85.49,85.54,2587
91,85.65,85.75,85.61,85.61,3250
92,85.69,85.81,85.64,85.67,16308
93,85.54,85.685,85.54,85.67,1950
94,85.5,85.535,85.36,85.535,7599
95,85.55,85.59,85.43,85.5054,3750
96,85.6101,85.63,85.5958,85.6,2099
97,85.67,85.76,85.65,85.67,4400
98,85.62,85.68,85.56,85.68,1658
99,85.6,85.68,85.6,85.654,4590
100,85.39,85.58,85.34,85.58,9174
101,85.32,85.4,85.31,85.36,2500
102,85.42,85.44,85.315,85.315,3901
103,85.44,85.44,85.35,85.37,2498
104,85.49,85.49,85.37,85.42,1500
105,85.32,85.46,85.31,85.44,1811
106,85.27,85.38,85.245,85.35,3894
107,85.18,85.27,85.14,85.27,1900
108,85,85.18,85,85.18,3771
109,84.94,85.05,84.94,85.04,6596
110,84.94,84.94,84.85,84.93,3612
111,85,85.03,84.956,84.956,1902
112,85.18,85.31,85.04,85.04,3454
113,85.22,85.26,85.17,85.19,1426
114,84.97,85.22,84.97,85.22,2844
115,84.86,85.03,84.86,84.97,6000
116,85.04,85.04,84.91,84.93,4831
117,84.97,85.0928,84.97,85.07,5360
118,84.95,84.95,84.84,84.95,3600
119,84.87,84.95,84.83,84.91,2724
120,84.85,84.91,84.83,84.83,3449
121,84.83,84.88,84.77,84.88,2768
122,84.84,84.88,84.77,84.84,3305
123,84.782,84.8612,84.782,84.84,2539
124,84.64,84.745,84.59,84.74,18205
125,84.5,84.66,84.5,84.61,4422
